File Name: not saved
Channel 2: 'Channel 2', 11360 values, raw ADC, no filters.
Channel 3: 'Channel 3', 11360 values, raw ADC, no filters.
Channel 4: 'Channel 4', 11360 values, raw ADC, no filters.

-26	-171	-7
23	-166	4
48	-86	-24
76	36	-33
113	148	-33
154	206	-21
163	200	-18
114	143	-22
7	72	-12
-130	10	-15
-257	-36	-7
-333	-79	-8
-350	-128	-16
-321	-177	-25
-273	-207	-20
-221	-196	-8
-157	-134	-9
-74	-40	-22
32	60	-36
145	137	-32
234	179	-42
273	187	-30
253	174	-19
198	142	-14
141	99	-9
110	40	-16
101	-29	-22
85	-92	-30
27	-129	-26
-80	-131	-14
-210	-112	-13
-308	-89	-14
-311	-81	-25
-204	-93	-34
-14	-100	-27
184	-78	-32
314	-8	-30
321	91	-17
216	186	-17
49	233	-11
-101	212	-24
-181	135	-24
-176	39	-17
-107	-36	-25
-27	-71	-23
28	-79	-33
36	-87	-28
11	-119	-20
-23	-173	-24
-38	-218	-30
-22	-216	-32
22	-144	-43
82	-14	-37
139	129	-14
181	229	-18
188	241	-9
154	166	9
69	45	3
-52	-61	-32
-191	-108	-42
-315	-79	-27
-378	-5	-39
-355	62	-27
-249	77	-23
-87	31	-24
84	-53	-24
212	-121	-37
268	-131	-23
251	-69	-19
183	33	-9
105	129	-4
42	169	-11
14	136	-8
9	53	-9
12	-36	-10
7	-94	-20
-10	-105	-34
-40	-85	-36
-76	-62	-49
-111	-64	-48
-143	-93	-48
-164	-127	-52
-164	-143	-32
-128	-116	-32
-49	-50	-23
68	40	-13
197	131	-21
299	208	-13
328	260	-8
269	282	-3
136	268	4
-33	208	-8
-182	93	-19
-269	-66	-11
-272	-238	-21
-206	-374	-36
-106	-426	-40
-7	-371	-46
59	-223	-53
85	-35	-40
72	126	-18
36	214	0
-7	215	-7
-41	161	-18
-53	103	8
-38	82	22
-1	109	15
42	149	2
75	157	-14
69	101	-38
28	-13	-41
-40	-143	-41
-104	-237	-55
-133	-258	-44
-102	-214	-33
-20	-135	-25
89	-66	-32
184	-26	-38
234	-4	-32
231	23	-31
184	76	-8
124	140	2
75	190	-4
41	191	-35
13	135	-42
-29	43	-1
-102	-48	-12
-199	-108	-21
-298	-135	-19
-363	-141	-40
-366	-149	-33
-300	-163	-26
-177	-169	-32
-34	-149	-35
89	-85	-27
170	6	-11
202	103	-24
199	171	-34
175	202	-26
145	195	-19
109	163	-11
57	115	-8
-20	56	-8
-113	-8	-13
-202	-65	-11
-247	-96	-12
-221	-86	4
-117	-41	9
34	13	-11
184	43	-34
283	33	-65
297	-9	-59
234	-43	-40
131	-31	-28
46	29	-40
8	110	-38
18	155	-13
48	123	-18
54	20	-13
12	-103	-14
-79	-186	-21
-185	-190	-16
-271	-122	-16
-300	-41	-12
-272	0	-15
-203	-24	-15
-117	-85	-30
-35	-130	-42
44	-116	-35
126	-39	-32
206	60	-27
273	140	-38
302	174	-60
265	171	-66
159	166	-26
7	165	-16
-147	160	-13
-248	106	15
-273	-16	7
-226	-192	-5
-139	-357	-5
-63	-431	-9
-28	-368	-15
-27	-182	-22
-33	41	-32
-8	209	-32
71	255	-29
183	187	-25
284	69	-16
318	-19	1
256	-27	20
111	34	14
-59	112	-8
-199	143	-41
-269	97	-59
-270	-13	-54
-237	-138	-46
-208	-226	-55
-197	-248	-52
-182	-200	-16
-120	-116	-12
22	-27	-17
234	46	-17
459	96	-13
620	130	-7
648	158	-20
525	185	-35
280	206	-34
-6	209	-22
-262	174	-25
-428	99	-21
-488	-4	-16
-458	-114	-31
-366	-196	-35
-253	-231	-24
-139	-208	-19
-45	-153	-17
22	-97	-31
63	-62	-24
85	-54	-9
98	-53	-7
116	-37	-20
147	11	-27
182	78	-12
203	130	-20
192	139	-12
130	94	11
23	17	8
-106	-46	-9
-228	-61	-9
-304	-14	-27
-316	69	-37
-258	144	-27
-147	168	-46
-8	129	-54
125	50	-55
225	-30	-50
273	-76	-40
262	-78	-39
204	-53	-28
114	-31	-8
19	-36	3
-59	-71	-13
-115	-124	-35
-150	-171	-43
-183	-202	-53
-231	-212	-44
-295	-210	-14
-357	-191	8
-378	-150	37
-314	-71	47
-140	51	43
120	203	36
409	352	-11
636	449	-37
728	458	-43
645	368	-49
421	202	-47
127	7	-45
-141	-170	-44
-314	-290	-45
-371	-339	-43
-336	-316	-49
-259	-239	-59
-185	-130	-76
-134	-13	-72
-99	90	-50
-53	158	-16
11	174	7
95	148	-2
175	94	10
234	46	13
245	26	16
211	38	11
137	63	-13
42	65	-36
-65	13	-46
-166	-97	-38
-245	-227	-51
-285	-322	-47
-279	-322	-22
-219	-211	-22
-117	-18	-25
-2	186	-41
100	319	-43
162	333	-32
180	239	7
167	96	38
149	-15	-11
145	-43	-17
159	8	11
170	79	2
139	95	-8
41	12	-8
-123	-151	-14
-312	-322	-19
-458	-417	-12
-489	-383	-21
-387	-240	-57
-177	-52	-85
54	95	-66
216	158	-60
252	149	-56
163	117	-37
19	117	-12
-93	158	8
-107	205	-2
-23	210	-12
100	145	-22
182	25	-15
162	-101	-6
39	-178	-22
-134	-188	-61
-273	-151	-70
-312	-106	-18
-222	-81	46
-22	-62	68
234	-17	53
476	84	61
648	224	24
713	345	-12
652	372	-52
476	266	-97
224	58	-81
-49	-170	-93
-288	-320	-79
-448	-342	-59
-524	-259	-43
-539	-153	-35
-529	-113	-38
-507	-168	-37
-459	-275	-52
-351	-341	-32
-161	-288	-18
93	-100	-18
346	150	-11
516	362	-6
545	438	-20
431	368	-8
236	201	1
44	32	-7
-78	-64	-4
-112	-68	-12
-101	-20	-6
-101	23	-7
-156	20	-6
-258	-23	1
-363	-67	-8
-418	-68	-30
-380	-11	-37
-248	87	-39
-48	182	-46
172	233	-32
373	227	-31
522	171	-20
584	97	-18
552	22	-23
419	-42	-20
212	-100	-22
-24	-157	-23
-233	-209	-26
-369	-247	-34
-407	-259	-43
-369	-240	-32
-291	-191	-25
-221	-124	-15
-170	-52	-11
-130	21	-25
-77	93	-25
14	165	-23
138	229	-22
269	272	-14
363	279	-11
387	233	-19
326	129	-11
202	-13	0
51	-157	-11
-86	-263	-24
-183	-292	-2
-235	-242	-9
-245	-125	-59
-229	12	-53
-195	120	-36
-148	166	-47
-80	140	-49
5	67	-33
100	-17	-9
184	-81	4
232	-94	-25
218	-63	-50
138	-4	-43
11	56	-24
-128	89	-15
-231	76	-13
-264	12	-12
-229	-81	-8
-148	-174	9
-65	-230	-6
-18	-229	-22
-12	-171	-19
-24	-79	-25
-20	7	-32
25	61	-30
105	78	-26
181	71	-23
209	67	-4
163	82	-8
55	110	-18
-64	130	-8
-144	118	-11
-153	65	-15
-95	-9	-19
-2	-76	-13
86	-102	-26
154	-75	-29
204	-11	-14
252	57	-19
297	99	-34
317	97	-48
279	51	-48
169	-5	-37
1	-45	-39
-166	-48	-34
-271	-17	-34
-277	25	-34
-197	47	-17
-94	27	-15
-30	-30	1
-44	-102	15
-121	-149	-8
-210	-140	-45
-252	-79	-57
-223	9	-45
-136	79	-32
-42	97	-28
20	68	-44
49	18	-21
62	-9	0
98	10	-5
164	70	17
239	134	11
270	161	-12
224	128	-27
86	43	-27
-96	-55	-23
-256	-138	-22
-339	-187	-12
-320	-206	-17
-225	-207	-24
-95	-194	-36
22	-158	-42
107	-81	-40
169	32	-40
210	160	-34
241	250	-25
245	268	-21
204	205	-20
111	88	-18
-16	-34	-22
-150	-117	-28
-249	-142	-16
-296	-136	-13
-288	-127	-21
-243	-134	-15
-180	-150	-14
-106	-135	-21
-30	-65	-32
52	64	-17
132	215	-11
200	334	-19
238	372	-24
237	313	-23
200	189	-17
141	38	-7
78	-96	-3
22	-196	-21
-23	-263	-29
-66	-301	-31
-111	-307	-25
-157	-271	-23
-191	-189	-22
-200	-69	-16
-167	51	-33
-83	137	-41
41	164	-45
180	134	-40
299	83	-23
363	45	-25
351	44	-24
270	65	-10
143	81	7
8	57	26
-104	0	19
-175	-62	-13
-208	-93	-34
-217	-67	-47
-217	-3	-79
-212	58	-80
-191	70	-71
-145	22	-49
-70	-59	-25
21	-118	-43
99	-106	-44
138	-19	-49
123	105	-40
64	194	-4
-12	196	24
-64	104	19
-77	-45	28
-45	-185	42
3	-263	11
32	-261	-9
19	-199	-12
-40	-111	-13
-117	-25	-47
-167	46	-45
-147	108	-7
-47	162	-19
107	201	-42
266	207	-23
363	174	-16
363	106	-22
258	27	-29
95	-34	-47
-74	-69	-35
-191	-85	-24
-243	-99	-11
-232	-126	1
-193	-165	-1
-152	-192	-9
-120	-185	-38
-98	-130	-58
-68	-38	-62
-29	65	-63
15	157	-60
47	222	-45
65	258	-32
71	270	-30
77	253	-19
96	199	-1
121	101	15
135	-25	17
119	-149	9
60	-230	29
-31	-240	39
-118	-192	24
-172	-127	-4
-176	-91	-43
-140	-106	-52
-96	-158	-69
-68	-200	-91
-67	-181	-91
-66	-84	-85
-37	65	-57
49	205	-35
186	278	-10
329	261	6
414	174	19
392	70	14
252	-8	0
28	-44	8
-201	-56	2
-366	-71	-5
-419	-106	-18
-370	-147	-42
-260	-159	-33
-156	-119	-33
-83	-28	-34
-44	80	-32
-3	165	-40
77	195	-30
198	179	-26
330	144	-11
409	119	-1
390	104	-12
265	74	-31
83	-2	-38
-85	-133	-28
-177	-287	-49
-180	-403	-51
-128	-418	-33
-78	-306	-9
-68	-99	6
-100	136	-16
-129	329	-33
-108	427	-27
-20	430	-15
103	359	12
198	252	8
208	128	-23
119	-3	-42
-35	-145	-45
-182	-288	-16
-260	-406	-3
-242	-466	6
-152	-443	4
-39	-333	-12
42	-167	-27
69	14	-41
57	155	-54
35	228	-69
36	224	-54
71	171	-35
131	110	-25
184	90	-24
207	127	-43
180	205	-31
104	277	-13
-6	279	-8
-125	177	-6
-223	-24	-11
-281	-263	-8
-285	-456	-18
-244	-517	-24
-173	-423	-19
-96	-209	-7
-37	36	-22
-1	222	-51
16	292	-60
31	260	-39
58	180	6
101	123	9
149	120	1
183	150	21
187	154	28
148	83	10
63	-69	-9
-54	-250	-16
-185	-376	-30
-296	-384	-46
-350	-265	-62
-318	-82	-59
-191	85	-48
5	168	-38
228	155	-21
413	96	-18
506	54	-21
491	71	-30
371	134	-34
192	191	-30
3	189	-19
-156	106	-25
-264	-29	-31
-321	-169	-23
-329	-261	-24
-296	-289	-15
-231	-270	0
-150	-226	2
-71	-173	-2
-12	-103	-2
27	-5	-18
50	120	-15
81	244	6
131	334	0
199	349	-21
261	290	-53
284	194	-65
254	96	-51
167	28	-40
54	-25	-36
-50	-98	-44
-122	-222	-25
-160	-384	8
-178	-527	-7
-194	-565	-62
-209	-437	-84
-201	-145	-72
-141	223	-48
-18	540	-37
150	687	-52
312	605	-36
401	356	-8
374	52	1
239	-177	7
35	-259	7
-160	-211	-8
-286	-115	-8
-316	-65	-3
-276	-110	-8
-217	-213	-4
-191	-292	3
-214	-263	-9
-269	-102	-12
-312	137	-20
-294	353	-47
-193	449	-34
-17	395	-15
200	228	-17
411	38	-3
569	-102	6
648	-160	15
624	-162	39
498	-159	56
296	-183	0
50	-228	-44
-189	-247	-63
-380	-195	-70
-487	-62	-52
-499	110	-63
-425	244	-60
-290	272	-63
-133	179	-74
10	15	-65
100	-130	-47
119	-173	-39
62	-88	-25
-38	71	-16
-141	208	-9
-188	233	-2
-151	119	-3
-35	-75	14
104	-238	18
200	-278	-15
202	-171	-24
111	24	-19
-20	193	-30
-115	243	-35
-106	150	-25
16	-19	-14
208	-163	13
386	-198	11
475	-111	-1
438	38	9
288	159	-19
83	183	-10
-116	116	-2
-259	2	-2
-331	-96	-7
-329	-144	-53
-276	-157	-55
-197	-164	-75
-113	-190	-93
-40	-222	-91
15	-218	-77
54	-150	-48
89	-17	-27
127	130	-30
171	236	-21
209	259	-8
222	215	-3
184	154	10
89	120	-8
-54	130	0
-217	145	-13
-361	113	-21
-459	-3	-7
-497	-183	-28
-480	-358	-14
-412	-451	-3
-300	-403	-11
-140	-219	-14
63	38	-12
292	290	-9
506	469	-17
656	546	-40
681	516	-46
553	400	-28
292	225	-21
-42	23	-26
-362	-169	-37
-581	-309	-30
-639	-364	-12
-522	-330	19
-267	-227	28
49	-103	-6
346	-9	-53
547	26	-69
619	6	-58
562	-48	-38
428	-110	-19
263	-158	-36
132	-177	-30
57	-157	-11
31	-89	5
15	27	-2
-32	162	-35
-137	261	-41
-291	269	-33
-452	156	-40
-564	-49	-47
-577	-263	-35
-481	-376	-5
-303	-322	9
-95	-121	-15
82	139	-31
189	338	-30
216	391	-25
189	291	-15
138	118	-21
94	-31	-13
66	-93	-11
50	-66	-36
24	-12	-21
-19	4	18
-81	-49	26
-139	-145	32
-178	-224	13
-174	-227	-38
-128	-141	-56
-44	-6	-35
69	114	-32
195	164	-46
314	127	-66
405	34	-67
435	-61	-56
382	-105	-66
238	-75	-34
25	23	-1
-203	142	12
-392	233	23
-500	250	7
-522	189	-26
-489	75	-41
-442	-40	-30
-393	-107	-32
-332	-104	-4
-203	-45	-19
19	25	-48
318	60	-58
608	47	-35
786	1	11
772	-38	-10
558	-44	3
239	-22	12
-52	-9	18
-210	-48	-4
-198	-145	-39
-78	-268	-24
40	-351	-28
76	-340	-24
5	-235	-20
-117	-81	-13
-210	57	-33
-222	144	-71
-157	185	-76
-71	218	-59
-19	268	-30
-12	317	-19
-12	305	-15
28	190	-16
130	-25	-39
249	-259	-36
309	-394	-22
238	-362	-12
36	-172	14
-221	56	29
-415	183	45
-452	131	41
-321	-62	0
-107	-258	-7
81	-304	-27
152	-140	-52
95	162	-64
-20	444	-99
-97	557	-109
-68	453	-84
60	224	-66
225	13	-57
332	-59	-28
321	4	14
192	105	50
-8	109	26
-203	-43	-12
-330	-288	-12
-357	-482	-33
-295	-492	-67
-172	-292	-74
-26	16	-50
102	261	-28
192	309	-25
234	153	-16
234	-92	3
200	-260	9
150	-248	4
89	-80	13
14	116	6
-83	191	-9
-200	82	-25
-319	-158	-36
-402	-381	-19
-406	-460	-23
-308	-349	-23
-124	-119	1
102	102	5
302	222	-6
429	223	-13
451	177	-41
384	171	-47
266	244	-42
139	352	-36
34	405	-25
-43	335	-28
-102	147	-11
-149	-85	-14
-191	-250	-21
-228	-290	-19
-245	-214	-25
-237	-98	-21
-199	-21	-16
-138	-19	0
-60	-51	-1
18	-57	-16
89	18	-48
136	168	-60
148	323	-18
121	401	-9
59	350	-4
-20	180	2
-93	-43	-17
-125	-237	-32
-103	-344	-37
-29	-358	-36
70	-311	-61
156	-246	-79
191	-191	-89
161	-159	-87
89	-138	-50
17	-126	-16
-6	-120	17
42	-115	27
147	-102	27
251	-56	29
294	33	26
234	157	13
79	268	-3
-121	313	-9
-299	253	-40
-390	95	-42
-383	-89	-22
-297	-218	-11
-186	-224	-12
-94	-103	-11
-43	77	-13
-27	235	-28
-19	301	-13
2	279	-21
45	205	-33
99	137	-20
144	103	-37
165	82	-69
150	36	-81
98	-58	-72
13	-177	-40
-95	-263	-28
-208	-263	-40
-297	-170	-48
-329	-36	-46
-275	53	-27
-139	43	-17
49	-52	-12
237	-159	-8
363	-181	10
400	-79	28
346	106	38
245	265	43
153	296	21
102	160	-10
95	-77	-30
105	-288	-69
82	-362	-113
-4	-263	-103
-153	-64	-77
-329	112	-43
-473	165	2
-530	74	30
-474	-81	36
-325	-187	18
-137	-159	1
32	0	-37
136	202	-77
171	334	-68
165	321	-45
164	181	-48
206	4	-48
287	-105	-13
366	-85	24
387	33	42
301	156	26
115	177	16
-121	54	-15
-321	-171	-45
-419	-391	-51
-381	-488	-72
-232	-410	-77
-38	-184	-62
136	84	-59
245	279	-47
287	341	-11
269	273	-9
221	149	-10
144	45	13
44	15	5
-75	36	-1
-195	65	-9
-291	52	-8
-340	-14	-18
-333	-104	-22
-290	-171	7
-234	-179	4
-183	-136	-8
-143	-77	-25
-97	-41	-9
-40	-45	32
29	-64	28
99	-56	12
162	8	4
229	124	-12
318	250	-47
432	322	-88
545	295	-102
592	169	-101
503	-20	-88
252	-203	-65
-111	-331	-54
-459	-371	-41
-663	-326	-32
-626	-228	-26
-371	-100	-21
-23	27	1
262	136	4
379	212	-8
311	247	15
130	233	24
-54	174	1
-180	96	-14
-245	19	-7
-292	-27	-12
-363	-38	-32
-448	-26	-28
-484	-20	-19
-402	-40	-4
-184	-89	-15
123	-142	-28
414	-166	-35
592	-133	-48
608	-48	-49
503	54	-43
346	130	-26
215	143	-34
139	92	-34
95	5	-32
39	-71	-30
-58	-111	-9
-185	-107	-7
-300	-84	-9
-361	-67	-10
-351	-75	4
-282	-92	8
-194	-98	-1
-112	-67	-4
-40	0	-24
26	83	-43
91	153	-47
140	182	-46
157	171	-58
120	138	-44
42	103	-9
-35	83	43
-64	82	65
-18	91	11
83	98	-25
181	95	-42
205	76	-84
122	38	-90
-43	-23	-72
-215	-102	-70
-303	-190	-51
-253	-263	-38
-83	-296	-30
131	-269	-16
299	-181	-16
351	-60	-24
279	58	-30
131	137	-17
-17	156	5
-116	119	19
-153	41	20
-156	-42	31
-164	-113	24
-202	-148	-13
-267	-138	-40
-328	-82	-66
-351	10	-68
-313	109	-41
-210	183	-17
-54	206	-10
129	168	-27
313	89	-7
462	10	13
546	-28	-1
537	-19	-12
428	10	-21
249	9	-30
47	-53	-38
-118	-170	-48
-215	-282	-67
-240	-317	-54
-221	-226	-51
-191	-26	-41
-172	198	-30
-157	345	-32
-119	345	-13
-47	213	-8
49	25	0
131	-117	-1
157	-141	5
110	-62	-5
17	49	-8
-69	110	-15
-105	71	-35
-75	-45	-39
-15	-171	-46
17	-233	-19
-14	-208	6
-93	-122	7
-162	-33	0
-151	11	12
-28	13	19
167	7	-26
346	40	-65
423	126	-62
351	235	-48
169	309	-32
-33	294	-23
-166	186	-22
-191	22	-19
-138	-130	-16
-82	-223	-20
-84	-240	-32
-162	-205	-30
-264	-160	-21
-321	-130	-19
-281	-120	-21
-141	-104	-24
40	-59	-21
194	19	-15
263	115	-29
250	191	-30
187	223	-20
123	197	-21
80	131	-25
52	50	-10
16	-18	-7
-50	-65	-22
-143	-99	-21
-241	-129	-18
-311	-165	-16
-338	-192	-22
-317	-192	-30
-255	-141	-41
-156	-34	-51
-18	108	-40
152	243	-14
333	313	6
478	283	21
541	162	6
495	-5	-45
355	-149	-58
175	-209	-26
30	-168	-1
-52	-66	-5
-77	26	-35
-93	41	-44
-152	-33	-20
-262	-157	-42
-388	-244	-49
-448	-219	-43
-383	-69	-50
-191	152	-35
61	340	-15
279	408	-24
373	325	-26
321	142	5
170	-47	-5
10	-167	10
-80	-186	41
-72	-142	20
1	-102	3
65	-107	-7
58	-152	-21
-40	-187	-31
-199	-166	-41
-345	-75	-60
-399	41	-60
-318	123	-37
-114	128	-42
151	70	-52
391	5	-66
528	-5	-59
526	60	-34
398	161	-6
206	221	13
16	174	-13
-124	25	-35
-206	-166	-53
-249	-309	-69
-285	-329	-44
-321	-227	-12
-342	-54	-4
-300	104	-28
-178	196	-44
3	215	-14
188	191	0
300	169	0
296	166	7
181	165	4
16	129	16
-128	41	7
-206	-87	0
-218	-213	-1
-212	-286	-32
-223	-286	-53
-259	-224	-40
-277	-137	-19
-214	-64	-5
-33	-21	-17
241	-2	-45
520	16	-46
700	47	-45
707	89	-37
551	123	-35
299	132	-32
57	114	-31
-93	76	-26
-135	37	-11
-114	5	-11
-96	-21	-6
-130	-53	-4
-219	-96	-18
-318	-139	-32
-374	-163	-26
-347	-143	-21
-249	-77	-30
-117	19	-31
-3	112	-20
58	169	-5
66	179	-12
41	149	-11
17	108	24
13	83	15
39	86	-17
81	105	-17
119	116	-13
131	94	10
104	31	26
35	-60	0
-55	-159	-32
-140	-230	-76
-173	-260	-98
-120	-250	-82
24	-209	-71
230	-152	-61
425	-84	-58
535	-2	-65
495	93	-67
302	187	-44
4	252	-12
-304	250	-2
-526	162	-1
-610	4	12
-545	-176	43
-388	-306	49
-214	-337	18
-93	-263	-40
-56	-131	-108
-95	-8	-120
-157	55	-65
-176	57	-15
-98	43	38
106	71	93
410	171	57
740	319	54
989	438	76
1045	468	37
847	362	-28
429	152	-108
-107	-95	-119
-595	-297	-135
-892	-413	-132
-927	-437	-92
-736	-401	-68
-442	-331	-41
-176	-240	-43
-23	-125	-26
19	13	-5
18	153	7
48	253	14
133	289	19
236	247	16
280	157	11
223	62	8
66	0	-10
-123	-26	-10
-259	-40	-16
-288	-68	-16
-215	-121	-22
-97	-174	-22
4	-194	-23
54	-156	-16
62	-62	-13
68	44	-24
101	126	-20
164	158	-21
231	144	-18
263	117	-22
245	103	-19
176	105	-18
90	104	-24
6	71	-22
-60	0	-26
-118	-93	-29
-170	-174	-31
-218	-208	-25
-246	-183	-25
-234	-122	-26
-170	-52	-26
-68	0	-30
41	32	-31
136	54	-31
193	87	-31
214	129	-26
206	165	-24
184	174	-26
147	139	-25
90	71	-22
13	-12	-22
-78	-84	-26
-165	-129	-22
-229	-147	-25
-248	-148	-35
-231	-142	-34
-185	-129	-25
-129	-108	-7
-77	-70	-9
-31	-19	-6
14	33	16
68	82	-7
133	121	-25
209	161	-15
279	203	-26
325	241	-34
326	244	-42
258	183	-40
111	42	-45
-104	-154	-77
-354	-333	-61
-577	-422	-57
-698	-371	-33
-654	-192	-11
-432	22	-5
-71	170	15
328	174	-7
656	47	-26
818	-129	-31
782	-233	-6
588	-188	16
317	-5	22
57	215	12
-129	351	0
-236	320	-25
-285	134	-52
-308	-104	-47
-320	-275	-32
-314	-304	-14
-272	-195	-26
-188	-30	-32
-83	98	-18
14	135	-10
72	102	11
89	51	4
86	45	-38
91	94	-38
118	160	-20
144	185	-28
139	131	-20
69	13	-55
-57	-121	-65
-203	-213	-47
-310	-230	-51
-337	-181	-34
-285	-102	-28
-183	-40	-21
-83	-19	-12
-8	-31	-16
40	-48	-32
90	-46	-32
156	-11	-15
234	54	-19
290	123	-17
289	177	-7
216	189	2
89	155	0
-46	84	-12
-152	-5	-16
-203	-87	-16
-215	-139	-21
-209	-149	-20
-207	-119	-18
-213	-66	-22
-217	-12	-12
-208	32	3
-184	62	-18
-148	83	-46
-94	101	-40
-3	119	-28
148	130	-14
368	126	-23
619	96	-19
818	45	-2
864	-19	-9
698	-89	-13
334	-155	-35
-115	-215	-45
-497	-264	-57
-676	-294	-60
-602	-282	-59
-333	-221	-44
-8	-107	-28
236	30	-25
325	155	8
271	232	4
151	243	-4
39	202	-24
-26	140	-26
-62	94	4
-105	70	15
-177	62	40
-260	44	29
-321	-2	13
-336	-71	-20
-313	-145	-55
-295	-191	-76
-300	-192	-82
-314	-150	-49
-269	-74	-5
-97	12	10
212	101	-12
579	183	-27
853	250	-41
900	281	-44
662	255	-63
228	155	-83
-228	-4	-74
-518	-179	-69
-556	-316	-69
-390	-365	-50
-159	-320	-37
-13	-205	-23
-16	-72	-1
-123	33	-9
-217	104	-5
-202	155	12
-52	213	8
169	284	14
358	350	13
439	359	3
396	269	7
262	81	15
102	-168	19
-50	-398	-3
-185	-535	-19
-299	-527	-12
-379	-399	-19
-392	-207	-8
-316	-24	-5
-156	96	-2
34	150	-2
175	159	-15
216	164	-39
162	185	-60
66	213	-59
10	224	-67
39	189	-53
133	109	-42
228	6	-37
236	-87	-44
129	-143	-49
-63	-167	-24
-258	-173	-11
-375	-182	-4
-373	-190	-6
-267	-184	-16
-114	-135	-30
25	-38	-41
119	89	-44
169	209	-35
192	269	-21
206	256	-30
204	171	-31
175	52	-14
110	-57	-22
10	-129	-9
-102	-153	-8
-206	-138	-10
-285	-108	-6
-336	-81	-4
-353	-65	-3
-333	-57	-8
-262	-47	3
-124	-14	-8
74	51	-30
302	147	-57
506	252	-53
628	332	-42
626	354	-54
505	301	-59
297	190	-39
59	51	-23
-156	-66	-12
-325	-140	22
-436	-160	19
-491	-150	11
-484	-137	10
-392	-144	7
-218	-176	-1
30	-224	-7
294	-274	28
490	-315	34
544	-333	9
432	-307	-65
194	-216	-138
-72	-54	-152
-268	157	-127
-331	362	-54
-270	495	-44
-158	513	-78
-81	429	-48
-94	290	-22
-184	161	24
-287	70	47
-316	-4	24
-223	-112	17
-16	-282	-3
234	-481	-19
436	-608	-29
521	-567	-32
469	-333	-45
322	16	-56
160	319	-75
58	429	-76
49	300	-31
117	25	22
189	-218	52
190	-274	71
64	-112	66
-169	161	24
-436	364	0
-627	362	-41
-647	150	-63
-484	-142	-66
-194	-340	-70
101	-329	-65
291	-123	-51
323	142	-35
226	313	-24
87	305	-2
-6	155	-6
-13	-23	-19
35	-116	-13
79	-81	-4
52	26	-14
-46	108	-24
-180	93	-17
-274	-21	-19
-277	-160	-32
-182	-235	-6
-19	-188	-2
153	-33	-24
285	166	-12
354	321	-33
354	364	-57
292	279	-66
181	91	-44
29	-138	-23
-140	-334	-14
-296	-427	3
-411	-373	-27
-465	-188	-47
-475	61	-32
-465	272	-25
-459	350	-39
-450	262	-21
-400	61	-11
-259	-144	-15
4	-243	0
363	-179	3
746	6	13
1035	198	14
1132	285	-25
991	218	-27
648	35	-6
192	-162	-31
-247	-270	-37
-556	-260	-11
-668	-171	-1
-576	-88	12
-339	-69	14
-46	-111	-25
200	-147	-51
326	-100	-56
302	50	-55
159	244	-15
-42	373	-8
-223	350	-14
-321	161	-15
-321	-106	-26
-242	-315	-53
-132	-368	-77
-34	-254	-51
28	-75	-45
65	43	-27
86	26	-18
102	-104	-40
102	-233	-50
66	-242	-51
-12	-87	-41
-119	168	-42
-204	382	-20
-211	438	-16
-108	316	-21
96	88	5
346	-103	-19
558	-154	-40
653	-55	-17
598	106	-5
394	213	-3
99	189	14
-221	44	14
-487	-137	-4
-653	-264	-8
-692	-296	-25
-603	-237	-22
-421	-144	-29
-189	-64	-13
36	-5	4
207	54	-14
299	137	-42
310	233	-70
262	298	-57
192	284	-35
117	183	-16
48	29	0
-22	-117	24
-100	-195	22
-177	-192	12
-239	-140	-2
-262	-93	-22
-234	-86	-20
-156	-115	-20
-49	-142	-23
58	-120	-31
149	-32	-35
212	93	-48
251	206	-71
261	264	-63
245	256	-46
196	201	-56
115	135	-59
15	72	-30
-84	12	-17
-159	-61	-19
-205	-153	-10
-226	-241	-6
-235	-289	-12
-237	-270	-23
-228	-190	-36
-189	-90	-22
-111	-18	2
2	-4	6
117	-30	0
194	-47	-7
198	-5	-33
120	109	-33
-8	250	-27
-143	341	-45
-231	321	-40
-232	179	-13
-137	-26	15
36	-204	12
251	-285	15
449	-249	8
562	-135	-2
552	-11	-19
399	76	-50
151	110	-52
-115	121	-65
-300	131	-55
-351	149	-56
-257	149	-50
-89	110	-39
59	24	-43
117	-81	-22
69	-159	-20
-31	-183	-14
-120	-160	-27
-145	-128	-27
-114	-131	-5
-70	-175	-7
-62	-226	-23
-108	-222	-51
-172	-125	-66
-206	48	-24
-174	240	11
-81	361	24
38	362	44
142	254	48
216	100	31
269	-26	12
317	-83	5
343	-83	3
320	-80	-13
212	-121	-55
20	-215	-75
-204	-315	-65
-378	-353	-57
-425	-282	-62
-336	-106	-38
-163	114	-22
4	287	-44
95	353	-37
107	301	-36
81	182	-44
70	77	-23
94	38	-5
121	70	11
97	121	26
-5	122	11
-163	35	-21
-304	-119	-30
-360	-265	-51
-311	-326	-56
-189	-260	-47
-65	-93	-52
17	89	-45
59	193	-44
105	171	-29
189	58	-15
308	-62	-13
409	-106	-10
421	-43	-16
311	75	-18
110	162	-14
-98	140	-10
-233	7	-9
-258	-174	-13
-204	-292	-16
-139	-271	-17
-119	-114	-25
-149	101	-30
-176	260	-16
-151	284	-20
-43	174	-19
113	6	-5
251	-121	16
311	-139	16
276	-52	-15
180	71	-22
72	149	-14
-11	129	-19
-75	29	-31
-148	-90	-41
-252	-151	-65
-374	-112	-69
-458	-2	-63
-442	116	-58
-288	163	-37
-25	106	-45
269	-29	-43
496	-167	-32
589	-230	-30
522	-178	-32
341	-41	-41
118	100	-34
-75	163	-32
-201	106	-33
-256	-37	-29
-259	-179	-22
-239	-233	-7
-207	-154	6
-170	16	49
-116	179	93
-43	239	79
49	150	25
149	-34	-38
237	-209	-59
301	-264	-46
330	-167	-30
324	39	-10
284	243	-16
221	327	-35
130	250	-32
24	48	-22
-98	-171	-42
-218	-312	-62
-324	-320	-59
-392	-225	-48
-405	-98	-44
-357	-9	-44
-255	7	-27
-125	-22	-25
4	-48	-44
106	-19	-35
165	80	-16
183	215	-18
172	338	-4
150	389	7
125	345	1
104	215	2
78	37	-12
36	-140	-14
-26	-272	-7
-109	-334	-17
-208	-317	-19
-299	-241	-20
-360	-136	-29
-371	-32	-30
-310	52	-13
-174	111	-15
21	150	-17
238	174	-20
428	192	-31
536	191	-20
531	162	-24
415	101	-23
222	16	-15
7	-77	-25
-172	-153	-28
-273	-198	-34
-299	-214	-40
-267	-208	-34
-215	-189	-22
-169	-157	-26
-135	-105	-46
-103	-31	-37
-55	58	-23
13	142	-7
94	197	-11
159	205	-31
183	174	-11
156	127	26
93	86	61
28	59	60
1	35	12
26	-7	-50
90	-85	-94
149	-179	-95
154	-259	-87
81	-286	-65
-60	-243	-38
-209	-140	-28
-302	-8	-21
-282	122	16
-158	230	65
18	311	55
164	362	21
205	379	-27
116	330	-71
-79	205	-84
-308	9	-123
-489	-210	-113
-555	-387	-86
-465	-454	-76
-229	-386	-30
113	-214	-41
470	-16	-40
749	121	-18
849	138	-22
743	39	-14
478	-124	-12
172	-263	3
-39	-308	-9
-70	-221	-38
62	-32	-60
245	181	-55
326	333	-15
210	358	14
-86	251	31
-439	56	59
-689	-141	79
-726	-262	65
-561	-263	28
-291	-163	-19
-61	-16	-40
57	117	-20
76	187	7
68	194	5
107	168	-15
195	144	-3
270	147	21
252	163	12
100	161	-12
-134	109	-60
-350	2	-95
-450	-138	-100
-400	-265	-102
-256	-340	-82
-107	-338	-78
-28	-263	-68
-23	-151	-51
-42	-39	-43
-22	47	-42
67	98	-22
196	121	0
300	132	-5
325	143	1
262	153	4
151	153	-12
39	131	-9
-43	86	1
-100	21	3
-153	-50	0
-209	-113	5
-253	-158	22
-247	-178	20
-166	-177	-17
-31	-152	-49
111	-99	-54
200	-20	-50
216	82	-33
184	178	-17
167	239	-19
204	236	-23
291	171	-19
371	72	-32
363	-14	-42
228	-49	-30
-8	-31	-26
-259	5	-18
-431	6	-27
-463	-60	-33
-382	-184	-29
-261	-304	-21
-180	-344	-24
-173	-264	-31
-203	-88	-32
-194	113	-30
-75	253	12
170	285	14
470	227	-12
713	148	-20
785	114	-26
632	147	-32
280	197	-26
-157	192	-21
-554	82	-24
-792	-114	-4
-822	-312	-7
-654	-416	-34
-363	-368	-37
-31	-203	-48
268	-13	-32
483	100	21
595	92	24
602	-1	-8
521	-90	-40
363	-92	-41
159	9	-41
-61	145	-56
-259	225	-65
-399	178	-77
-459	17	-52
-434	-168	-15
-352	-268	-23
-245	-222	-45
-145	-48	-45
-76	150	-19
-39	260	11
-25	229	24
-14	86	24
12	-66	4
63	-134	5
139	-74	-4
230	64	-9
302	179	-7
340	179	-8
306	43	-3
202	-166	-22
47	-348	-44
-113	-413	-68
-221	-345	-58
-229	-201	-47
-132	-64	-40
29	7	-44
194	20	-59
291	31	-50
284	100	-60
190	241	-55
62	403	-24
-32	497	-31
-63	454	-22
-38	268	-9
-10	5	-17
-33	-224	7
-128	-332	16
-271	-296	22
-397	-170	24
-448	-40	8
-388	13	-8
-245	-28	-36
-68	-121	-37
82	-192	-34
175	-179	-21
212	-71	-6
214	86	2
195	229	-5
159	296	-13
96	269	-7
-4	179	-35
-125	72	-68
-234	-5	-69
-290	-44	-43
-277	-59	-18
-199	-85	-16
-89	-132	-5
13	-192	12
78	-224	-2
100	-196	-25
94	-109	-33
77	12	-30
66	114	-28
64	152	-43
70	120	-33
78	52	-5
87	0	-15
94	0	-35
100	57	-37
104	129	-21
103	161	-22
100	116	-46
93	-1	-44
84	-143	-34
70	-256	-16
56	-291	-9
50	-248	-21
64	-154	-15
107	-53	-15
172	24	-21
239	72	-30
262	100	-10
214	124	2
83	140	-28
-96	141	-15
-272	106	-9
-392	33	-16
-425	-62	-2
-388	-152	-11
-319	-196	-15
-257	-183	-22
-213	-113	-27
-172	-17	-31
-104	74	-20
4	130	-9
132	147	-28
242	135	-17
285	118	-21
250	117	-41
151	135	-38
36	158	-37
-52	161	-43
-96	113	-43
-106	14	-28
-109	-125	-23
-129	-260	-26
-165	-346	-32
-191	-344	-30
-184	-250	-28
-125	-99	-29
-26	57	-26
86	166	-26
172	202	-22
212	171	-32
203	115	-32
154	65	-20
93	37	-18
35	22	-30
-6	-7	-24
-34	-72	-10
-56	-162	-14
-92	-242	-11
-143	-264	-17
-211	-210	-20
-269	-87	-4
-282	59	16
-212	177	24
-33	233	-3
234	227	-18
527	183	-20
754	133	-37
831	90	-36
723	46	-29
452	-5	-23
105	-65	-30
-209	-117	-24
-412	-135	-34
-480	-117	-25
-450	-78	3
-383	-54	-19
-332	-70	-39
-307	-125	-48
-279	-176	-40
-210	-173	-20
-84	-90	-19
77	62	-24
219	223	-25
295	324	-28
272	325	-37
171	240	-32
27	113	-19
-112	5	-16
-215	-55	-5
-269	-78	-11
-269	-92	-23
-218	-126	-25
-127	-181	-42
-15	-229	-28
94	-233	-5
170	-167	0
193	-40	5
167	115	-14
111	253	-27
55	333	-35
18	330	-45
3	240	-40
-1	84	-28
-5	-99	-16
-14	-254	-19
-20	-333	-39
-27	-313	-31
-40	-213	-11
-75	-88	-25
-134	2	-28
-197	18	-16
-222	-21	-19
-160	-60	-9
2	-39	-8
230	67	-21
454	221	-32
589	345	-46
583	372	-35
446	284	-25
234	121	-27
17	-41	-28
-150	-148	-26
-256	-186	-13
-315	-191	-25
-354	-206	-22
-379	-238	-16
-373	-263	-25
-311	-237	-32
-187	-133	-40
-24	19	-43
132	155	-36
236	213	-23
262	183	-16
226	104	-9
157	41	-2
89	37	-4
38	81	-4
-1	117	-2
-44	85	-5
-101	-27	-10
-163	-180	-30
-213	-296	-33
-239	-319	-30
-239	-240	-37
-229	-105	-31
-214	18	-34
-193	96	-22
-148	131	-13
-54	165	-10
83	218	-6
240	286	-22
359	327	-15
396	299	-9
331	188	-25
195	29	-34
48	-112	-47
-51	-189	-40
-80	-195	-26
-56	-165	-25
-19	-149	-15
-1	-173	-12
-5	-218	-24
-4	-235	-23
33	-181	-18
105	-56	-26
172	99	-31
180	218	-37
86	260	-43
-88	223	-34
-279	153	-21
-398	98	-30
-390	86	-24
-262	97	-12
-76	85	-19
90	15	-9
181	-116	9
201	-259	3
184	-357	-30
172	-357	-42
184	-259	-30
196	-107	-14
180	39	-12
121	123	-17
42	132	-7
-17	88	-19
-30	30	-28
-5	-7	-35
10	-9	-35
-31	10	-10
-149	22	-2
-307	11	-9
-431	-25	-42
-455	-66	-55
-350	-85	-48
-151	-57	-36
63	14	-41
216	110	-19
266	190	-1
223	225	-38
136	200	-14
56	134	-9
15	54	-19
8	-7	-7
14	-42	-25
7	-51	-26
-23	-56	-27
-71	-68	-21
-122	-89	-22
-153	-105	-21
-152	-106	-15
-109	-94	-14
-36	-72	-31
52	-60	-43
131	-53	-22
170	-41	-26
152	-3	-37
83	70	-26
-15	166	-16
-106	249	-18
-153	275	0
-151	223	0
-104	97	-9
-40	-65	-8
20	-207	-20
66	-286	-16
98	-282	-16
127	-210	-19
151	-111	-27
169	-21	-32
171	32	-38
159	47	-35
139	38	-24
129	32	-23
131	43	-29
143	71	-34
142	97	-25
107	93	-34
36	42	-44
-67	-55	-35
-176	-170	-19
-263	-261	-39
-321	-289	-31
-345	-240	13
-339	-126	0
-304	14	-30
-235	137	-27
-121	215	-6
27	244	0
189	239	-6
325	219	-14
396	197	-30
385	171	-36
300	131	-24
172	65	-25
36	-21	-25
-77	-109	-30
-158	-181	-29
-206	-217	-15
-230	-214	-22
-228	-185	-21
-199	-141	-21
-139	-98	-31
-56	-56	-15
34	-12	-7
105	41	-22
130	110	-36
95	178	-53
-2	224	-49
-143	221	-38
-296	161	-49
-411	51	-47
-451	-69	-15
-377	-153	4
-182	-163	6
97	-97	5
398	5	0
632	84	-15
723	87	-24
642	6	-19
423	-117	-25
147	-216	-28
-80	-229	-28
-182	-143	-28
-145	-2	-32
-22	123	-29
100	174	-20
139	136	-20
63	40	-18
-94	-53	-22
-262	-104	-24
-375	-102	-28
-391	-76	-36
-325	-58	-40
-218	-64	-27
-118	-78	-14
-42	-66	-18
15	-13	-17
75	80	-27
144	177	-32
209	241	-22
240	252	-25
211	204	-13
127	124	0
12	35	2
-91	-45	-9
-156	-113	-11
-177	-163	0
-174	-192	-9
-175	-190	-20
-187	-153	-27
-199	-91	-31
-180	-23	-31
-112	29	-37
4	56	-42
139	68	-37
254	85	-27
306	120	-25
288	168	-27
214	202	-28
114	197	-25
23	135	-19
-41	27	-11
-77	-97	-19
-92	-200	-23
-106	-261	-4
-136	-274	-9
-186	-261	-41
-252	-232	-54
-307	-192	-42
-315	-138	-56
-241	-53	-54
-70	63	-21
171	195	-9
432	309	8
636	362	-4
720	334	-13
662	219	0
486	52	-7
252	-119	-15
22	-242	-6
-161	-290	-5
-286	-261	-24
-361	-182	-17
-392	-96	-36
-383	-23	-53
-320	20	-44
-195	48	-40
-33	79	-34
130	122	-28
245	171	-2
276	208	-4
216	208	-7
92	163	-11
-54	85	-32
-183	0	-29
-267	-68	-27
-302	-107	-16
-288	-121	-22
-245	-121	-21
-177	-119	-13
-102	-114	-4
-32	-102	-3
22	-79	-21
62	-45	-19
95	-15	-21
129	7	-34
171	11	-38
201	5	-35
188	-2	-40
98	-7	-40
-84	-19	-38
-320	-50	-22
-536	-104	-2
-627	-166	-4
-526	-195	-13
-217	-160	-18
222	-48	-21
655	110	-22
934	251	-30
976	313	-51
781	267	-40
449	138	-19
122	-2	-32
-86	-79	-35
-134	-57	-18
-76	34	-15
-3	131	-16
-6	163	-20
-110	100	-28
-274	-32	-28
-420	-165	-23
-481	-238	-25
-439	-227	-40
-325	-153	-38
-201	-66	-30
-107	-2	-16
-48	31	-1
2	58	-5
69	105	-15
156	171	-12
237	235	-1
269	251	-11
229	195	-20
123	78	-16
-8	-55	-18
-124	-159	-25
-191	-200	-32
-213	-185	-26
-208	-148	-21
-195	-117	-25
-186	-110	-24
-166	-112	-24
-124	-93	-30
-60	-37	-48
11	53	-61
67	149	-39
93	218	-26
80	241	-14
40	219	-10
-14	168	-23
-71	100	-8
-125	18	-4
-157	-84	13
-138	-200	32
-38	-317	4
151	-391	-2
399	-387	-11
628	-282	-38
753	-109	-41
704	74	-34
491	193	-22
194	206	-31
-77	127	-53
-222	13	-54
-223	-59	-41
-136	-47	-27
-56	36	-39
-61	131	-27
-164	162	-14
-310	91	-10
-411	-56	-14
-410	-196	-13
-306	-248	-6
-154	-170	-33
-27	4	-41
28	185	-49
13	287	-26
-28	265	-22
-44	155	-26
-8	34	-13
64	-28	-22
137	-3	-35
169	65	-30
139	114	2
57	89	-19
-47	-12	-23
-145	-141	-6
-215	-232	-27
-247	-243	-46
-239	-187	-41
-191	-107	-25
-115	-48	-22
-19	-25	-26
81	-18	-21
165	6	-24
222	72	-24
244	161	-22
239	229	-28
210	233	-20
165	162	-22
101	43	-40
20	-74	-40
-75	-147	-24
-168	-162	-16
-245	-135	-22
-284	-104	-18
-271	-87	-15
-208	-85	-19
-103	-79	-11
22	-41	-3
144	31	5
245	123	11
308	203	5
332	233	4
318	194	0
278	95	-16
216	-34	-33
141	-155	-30
42	-233	-30
-77	-258	-28
-212	-232	-33
-345	-176	-53
-443	-116	-64
-480	-59	-53
-432	-9	-32
-312	48	-28
-142	117	-32
42	192	-18
211	251	-7
346	264	-6
451	215	-6
506	111	-6
520	-18	-12
462	-131	-17
325	-196	-23
119	-200	-35
-122	-164	-30
-340	-113	-21
-476	-78	-25
-496	-58	-20
-402	-51	-15
-239	-34	-9
-58	1	-27
85	49	-35
172	100	-22
208	136	-12
211	154	-1
192	151	-13
149	132	-27
66	103	-46
-59	57	-37
-215	-1	-22
-355	-64	-31
-429	-118	-40
-402	-153	-35
-271	-160	-12
-85	-151	-21
97	-139	-38
216	-131	-25
255	-120	-35
233	-81	-48
188	2	-39
151	130	-15
127	274	1
98	379	-4
34	398	-7
-65	317	-15
-182	162	-20
-262	-10	-19
-272	-139	-13
-191	-198	1
-51	-196	0
93	-168	0
188	-155	-9
207	-163	-28
163	-178	-29
91	-163	-37
35	-102	-40
16	-6	-23
32	89	-28
62	145	-33
77	148	-23
51	105	-6
-21	55	-17
-133	22	-41
-261	10	-30
-369	-3	-28
-411	-45	-37
-352	-120	-43
-182	-208	-32
69	-261	-18
336	-250	-22
531	-170	-27
591	-47	-33
496	68	-26
302	141	-19
97	165	-14
-38	157	-14
-70	141	-19
-28	131	-10
19	120	-8
5	85	-19
-87	19	-23
-228	-64	-20
-345	-134	-18
-390	-159	-15
-350	-126	-11
-258	-58	-17
-168	11	-24
-107	49	-24
-65	54	-21
4	45	-34
137	55	-44
332	96	-41
524	154	-26
626	189	-23
569	166	-34
354	67	-30
35	-76	-27
-279	-211	-25
-497	-286	-37
-584	-265	-41
-556	-178	-13
-463	-54	-22
-350	51	-36
-213	116	-33
-37	139	-30
194	147	-5
446	160	10
641	174	2
689	174	-6
553	131	0
258	41	-15
-89	-80	-32
-362	-187	-40
-484	-241	-45
-453	-224	-46
-341	-147	-36
-235	-53	-9
-182	22	8
-165	55	3
-125	50	-21
-22	35	-17
129	31	-15
262	56	-25
296	100	-8
199	139	-23
21	145	-37
-141	96	-21
-191	-11	-32
-111	-152	-35
45	-280	-22
167	-351	-27
170	-322	-29
46	-206	-34
-115	-45	-20
-201	97	-4
-136	159	-14
62	130	-16
295	40	-28
436	-39	-33
419	-53	-30
261	15	-38
56	131	-43
-84	222	-19
-109	233	2
-47	150	-14
21	18	-17
17	-101	-3
-78	-160	-17
-223	-155	-23
-331	-126	-21
-347	-112	-18
-259	-128	-35
-118	-150	-46
11	-132	-39
86	-43	-43
106	101	-41
107	248	-43
122	338	-33
156	329	-3
178	240	2
155	118	-12
68	22	-5
-56	-22	-3
-172	-32	1
-231	-44	-4
-215	-89	-20
-156	-163	-19
-91	-236	-26
-63	-265	-27
-69	-234	-27
-86	-151	-30
-67	-47	-34
0	36	-40
105	89	-27
211	113	-28
269	128	-23
266	147	-18
211	162	-22
132	166	-22
49	147	-30
-35	101	-23
-136	35	-15
-260	-37	-20
-392	-111	-23
-486	-179	-35
-481	-228	-48
-341	-242	-32
-80	-199	-25
238	-102	-27
517	33	-14
666	161	4
653	233	1
495	218	-7
261	126	-1
33	-2	-9
-130	-114	11
-210	-161	5
-232	-135	-22
-233	-61	-42
-247	10	-70
-279	35	-48
-312	1	-52
-307	-83	-35
-235	-168	-23
-92	-206	-26
103	-162	-22
300	-35	-32
439	130	-19
474	274	-21
389	336	-23
211	287	-24
-2	145	-17
-182	-33	-5
-281	-177	-7
-287	-238	-26
-232	-206	-21
-170	-120	-12
-143	-36	-37
-160	1	-44
-189	-20	-37
-176	-67	-37
-83	-98	-34
86	-72	-28
285	12	-25
433	127	-15
472	225	-12
383	262	-1
201	225	-1
5	122	-17
-135	-6	-17
-187	-118	-18
-167	-178	-17
-126	-183	-26
-117	-142	-25
-158	-87	-26
-222	-37	-32
-249	-5	-31
-199	16	-25
-64	39	-23
110	79	-26
251	129	-28
302	171	-36
242	177	-27
107	131	-13
-40	38	-18
-136	-75	-35
-160	-170	-42
-122	-215	-35
-70	-199	1
-43	-138	0
-53	-57	-25
-86	12	-25
-108	57	-32
-97	77	-26
-54	88	-36
2	104	-28
49	131	-15
78	169	-19
97	197	-12
121	194	-19
160	147	-19
201	55	-18
207	-62	-20
152	-178	-14
26	-257	-10
-139	-286	-17
-291	-271	-28
-369	-233	-34
-338	-194	-44
-205	-167	-40
-12	-142	-26
180	-98	-25
324	-21	-11
392	85	3
387	191	-4
319	257	-1
212	256	-13
83	186	-26
-57	84	-37
-195	-2	-31
-319	-39	-19
-402	-26	-15
-428	13	-16
-383	31	-30
-267	-1	-10
-101	-83	-13
83	-181	-29
244	-250	-30
341	-253	-24
358	-179	-21
302	-54	-23
207	74	-26
109	157	-32
36	162	-21
-12	96	-23
-63	-4	-33
-155	-81	-30
-300	-83	-22
-472	3	-38
-601	147	-39
-595	283	-33
-410	345	-25
-53	301	-15
373	165	-15
732	1	-11
899	-122	-9
818	-161	7
535	-125	10
180	-66	-4
-109	-40	-16
-241	-66	-14
-215	-126	-19
-105	-169	-36
-14	-153	-41
-16	-82	-30
-119	4	-27
-262	49	-37
-369	27	-41
-377	-45	-41
-281	-118	-30
-132	-135	-24
13	-78	-19
105	29	-16
139	137	-23
135	198	-19
123	200	-16
116	157	-24
106	106	-19
69	63	-19
-6	26	-31
-109	-30	-26
-211	-113	-16
-272	-214	-12
-262	-290	-14
-188	-296	-13
-66	-207	-21
62	-41	-26
170	148	-21
234	292	-26
258	345	-34
252	296	-31
226	180	-42
188	55	-46
137	-26	-41
72	-48	-44
-6	-30	-36
-94	-14	-33
-179	-43	-19
-241	-124	-18
-262	-228	-31
-240	-301	-18
-175	-300	-16
-94	-207	-25
-27	-52	-32
-1	106	-25
-23	218	-4
-66	256	-12
-93	231	-24
-61	174	-23
44	116	-13
195	68	-10
332	22	-16
383	-28	-16
302	-87	-14
113	-133	-8
-124	-156	-3
-318	-143	3
-387	-118	-4
-307	-106	-17
-117	-114	-17
105	-129	-13
279	-114	-19
354	-41	-38
330	88	-30
244	228	-27
135	313	-34
41	295	-43
-35	171	-48
-103	4	-35
-172	-136	-35
-239	-191	-27
-282	-155	-9
-289	-71	-5
-244	2	-11
-151	32	-10
-28	30	-10
92	24	-12
180	47	-15
214	89	-17
182	110	-22
96	71	-24
-14	-32	-33
-102	-158	-34
-127	-240	-21
-68	-224	-18
50	-116	-29
175	16	-49
234	95	-53
184	72	-41
32	-27	-20
-160	-133	-7
-300	-167	1
-316	-98	-18
-191	34	-27
22	155	-25
237	202	-23
363	165	-7
363	91	-39
252	45	-48
91	62	-26
-56	116	-13
-156	148	-14
-197	104	-31
-205	-14	-24
-201	-155	-27
-194	-242	-31
-180	-232	-27
-148	-131	-25
-103	-2	-20
-50	85	-15
-1	102	0
41	58	1
85	7	-3
132	-19	5
183	-9	11
215	9	-1
211	8	-25
148	-25	-41
29	-70	-50
-130	-98	-50
-300	-92	-54
-451	-60	-64
-545	-31	-51
-550	-24	-30
-443	-29	-20
-207	-23	4
125	23	17
490	105	4
785	191	-2
912	231	-30
824	195	-39
558	97	-19
211	-20	-8
-85	-104	-17
-248	-129	-30
-267	-109	-23
-205	-80	-32
-152	-69	-26
-167	-84	-21
-250	-99	-34
-341	-92	-37
-371	-55	-35
-303	-11	-41
-157	17	-16
6	12	19
129	-2	-2
189	7	-28
200	70	-36
190	178	-27
178	274	-17
155	296	-14
100	204	-16
8	23	-22
-94	-178	-21
-162	-309	-25
-169	-326	-16
-121	-242	-42
-71	-124	-55
-76	-49	-46
-154	-49	-45
-262	-97	-35
-321	-121	-52
-249	-62	-55
-44	87	-41
222	279	-27
426	422	13
469	445	24
336	332	-1
107	124	-13
-91	-100	-14
-158	-265	-12
-82	-343	-11
67	-330	-20
180	-257	-21
180	-156	-21
67	-47	-26
-84	49	-19
-183	117	-8
-177	140	-26
-78	113	-32
54	53	-16
150	-5	-2
175	-27	0
139	3	-18
77	63	-28
12	109	-31
-55	99	-21
-138	22	-10
-242	-93	-22
-343	-189	-28
-394	-224	-23
-370	-182	-35
-250	-90	-41
-79	4	-39
91	65	-40
212	88	-25
277	91	-15
300	100	-5
311	123	-10
314	148	-15
288	139	-9
215	83	-16
79	-17	-27
-91	-127	-33
-245	-213	-41
-331	-246	-34
-331	-223	-30
-262	-164	-28
-165	-90	-27
-71	-19	-34
6	47	-29
80	109	-23
162	157	-19
241	183	-12
292	177	-7
287	138	-18
212	80	-36
85	30	-33
-52	0	-12
-158	-9	1
-212	-19	-5
-217	-50	-21
-195	-105	-35
-164	-162	-24
-123	-179	-22
-66	-137	-28
5	-32	-49
78	95	-53
124	185	-45
122	201	-30
70	138	-13
-2	39	3
-56	-47	21
-66	-76	-1
-27	-43	-2
34	14	-8
86	57	-28
103	52	-59
79	3	-61
25	-67	-52
-51	-127	-45
-142	-152	-21
-248	-138	-41
-347	-92	-32
-411	-20	-18
-389	70	-20
-257	166	-18
-27	244	-9
244	271	-2
465	223	-4
565	100	-3
516	-63	-25
355	-211	-13
163	-294	1
22	-291	-2
-29	-224	-31
-5	-134	-35
38	-65	-6
41	-35	-33
-17	-26	-24
-118	-18	-29
-205	12	-40
-226	56	-30
-162	93	-30
-38	99	-16
87	63	-16
155	2	-12
137	-62	-5
47	-102	-1
-71	-108	-5
-172	-81	-7
-218	-41	-15
-203	-3	-11
-143	20	-7
-62	32	-39
16	41	-62
85	62	-79
133	103	-64
163	159	-48
172	211	-46
158	238	-35
123	215	-24
78	143	-16
30	43	-13
-20	-48	-18
-70	-105	-18
-126	-125	-5
-185	-126	-7
-236	-140	-11
-263	-180	-9
-253	-233	-16
-201	-254	-21
-116	-210	-30
-17	-96	-25
76	56	-8
151	180	-4
204	224	-9
240	174	-26
253	81	-32
238	4	-26
188	0	-30
104	68	-16
-7	150	-12
-116	171	-26
-204	81	-13
-249	-107	-2
-247	-321	-19
-206	-460	-38
-135	-448	-44
-50	-274	-32
39	-2	-28
124	261	-16
192	421	-30
227	431	-45
219	313	-41
163	147	-31
66	5	-33
-51	-54	-26
-166	-32	-2
-253	31	4
-296	84	4
-288	92	-16
-241	57	-21
-169	4	-18
-102	-37	-31
-61	-63	-55
-51	-88	-31
-55	-134	5
-33	-209	-37
57	-286	-26
241	-322	-8
488	-261	25
723	-105	43
846	112	-19
775	310	-45
496	408	-38
79	362	-33
-344	183	-36
-636	-61	-32
-714	-286	-46
-599	-418	-47
-375	-417	-51
-165	-301	-46
-48	-122	-45
-26	51	-35
-46	174	-14
-28	215	-6
56	194	8
188	138	2
296	88	2
314	65	13
225	62	-3
64	54	-37
-97	14	-37
-207	-65	-12
-248	-162	-19
-245	-238	-35
-236	-249	-32
-240	-186	-36
-231	-67	-32
-174	57	-32
-45	149	-27
143	187	-24
337	182	-28
469	168	-22
486	161	-16
399	165	-22
242	158	-24
75	114	-14
-61	23	-15
-151	-93	-16
-207	-195	-19
-245	-242	-24
-267	-217	-38
-269	-135	-45
-234	-33	-35
-159	45	-27
-58	77	-21
41	63	-20
118	26	-19
159	0	-23
170	4	-24
159	38	-19
132	84	-9
91	106	-4
35	86	0
-30	21	14
-95	-62	-11
-143	-133	-44
-167	-158	-46
-166	-130	-36
-152	-71	-25
-132	-13	-33
-108	20	-28
-79	25	-15
-36	21	-22
14	37	-36
58	85	-40
85	150	-31
93	197	-22
94	193	-19
102	129	-40
122	25	-17
140	-79	8
130	-148	16
69	-171	29
-29	-154	-32
-129	-122	-76
-177	-86	-54
-143	-52	-50
-43	-22	-28
75	-5	2
147	-10	-7
143	-40	-11
80	-81	-32
5	-95	-41
-37	-54	-32
-40	41	-31
-38	147	-18
-71	195	-36
-156	143	-46
-248	3	-13
-280	-149	-23
-191	-218	-39
12	-148	-3
250	33	21
411	224	10
417	308	-9
262	228	-10
34	26	-14
-148	-188	-20
-198	-295	-18
-112	-254	-8
46	-111	1
175	25	-8
211	65	-30
139	-7	-54
4	-135	-51
-143	-227	-35
-256	-229	-26
-318	-152	-13
-325	-53	15
-271	8	20
-144	27	-8
54	47	-23
280	125	-56
462	277	-69
519	452	-51
410	557	-49
170	505	-60
-117	310	-65
-339	29	-42
-428	-210	-32
-380	-322	-31
-253	-289	-37
-120	-177	-29
-39	-82	-15
-14	-68	-23
-12	-133	-19
0	-207	-14
39	-215	-18
91	-123	-6
134	36	14
156	183	15
163	247	8
164	201	-8
167	82	-15
156	-44	-11
113	-119	-19
26	-129	-21
-91	-104	-26
-199	-76	-40
-259	-65	-39
-253	-63	-49
-195	-43	-50
-120	11	-50
-63	81	-44
-36	126	-27
-24	125	-29
-3	72	-18
39	6	-27
93	-34	-20
132	-25	-5
130	14	-21
85	43	-26
14	25	-11
-48	-43	-1
-81	-129	-9
-87	-192	-6
-87	-203	-6
-103	-170	-15
-133	-117	-21
-158	-59	-28
-137	11	-55
-56	121	-46
70	276	-9
200	435	-19
278	522	-12
278	450	3
215	202	14
133	-160	-7
82	-498	-1
77	-685	29
97	-655	-3
98	-460	-26
34	-218	-59
-93	-35	-63
-243	40	-43
-347	51	-49
-350	77	-57
-242	171	-54
-63	311	-35
111	415	-33
223	408	-16
245	269	9
208	67	9
151	-104	-18
114	-164	-38
107	-114	-38
101	-20	-32
57	32	-11
-42	3	-2
-178	-78	-4
-299	-141	-42
-348	-128	-61
-300	-39	-27
-176	75	-36
-21	149	-20
107	147	-21
182	93	-36
203	39	-18
194	33	-19
172	70	0
138	100	1
78	74	-15
-22	-32	-21
-150	-179	-18
-271	-304	-11
-342	-340	-15
-338	-281	-16
-262	-165	-32
-150	-48	-38
-33	25	-18
66	55	-14
154	68	-24
242	98	-19
332	150	-16
402	198	-12
417	211	-11
346	168	-8
203	80	-18
18	-18	-35
-148	-84	-34
-252	-100	-36
-281	-74	-24
-271	-34	-30
-255	-13	-26
-260	-20	-17
-281	-51	-26
-285	-85	-23
-235	-101	-27
-112	-91	-19
64	-49	-12
258	17	-18
415	96	-58
503	168	-68
501	210	-32
411	205	-11
253	143	-13
54	39	-27
-148	-79	-31
-315	-169	-43
-425	-203	-51
-459	-175	-56
-433	-106	-26
-354	-32	-16
-234	17	-6
-76	32	8
118	29	-6
325	29	-9
496	55	-17
569	105	-4
506	158	-19
300	189	-25
12	171	-16
-255	106	-22
-415	9	-25
-426	-93	-30
-321	-171	-17
-180	-216	-11
-79	-232	-2
-49	-224	-2
-72	-196	-1
-89	-157	-3
-50	-97	-23
49	-29	-27
180	38	-30
283	88	-34
318	104	-27
272	85	-25
171	38	-27
44	-15	-25
-79	-53	-24
-180	-60	-18
-253	-29	-25
-279	25	-26
-250	85	-16
-156	123	-20
-15	131	-59
133	110	-70
242	72	-47
270	36	-32
216	7	-18
111	-16	0
7	-40	3
-57	-68	-19
-69	-98	-36
-51	-109	-43
-40	-91	-32
-61	-43	-14
-115	19	-21
-170	68	-17
-194	78	-11
-157	40	-30
-63	-19	-31
52	-69	-8
140	-85	-13
172	-53	-28
145	-1	-24
84	42	-22
33	51	-20
27	26	-9
74	-7	-8
140	-20	-12
183	7	-25
159	61	-28
62	114	-23
-86	130	-17
-228	93	-3
-315	10	-19
-321	-92	-33
-256	-174	-32
-157	-218	-32
-57	-214	-23
12	-167	-23
57	-85	-32
97	20	-15
148	130	-31
207	221	-27
254	264	-4
255	241	-20
187	157	-36
56	35	-32
-107	-83	-9
-247	-162	-9
-319	-189	-9
-300	-179	-17
-206	-154	-24
-77	-131	-36
42	-113	-33
110	-86	-25
125	-37	-39
105	24	-25
81	77	-16
74	96	-20
80	69	-36
78	19	-25
42	-21	-10
-33	-18	16
-129	37	5
-206	118	-42
-227	188	-20
-178	203	-28
-84	158	-36
13	70	-36
79	-21	-31
107	-84	-4
123	-102	-6
156	-82	-1
216	-45	-17
280	-8	-31
306	16	-39
251	24	-49
122	18	-42
-38	-3	-33
-169	-34	-33
-226	-74	-35
-214	-112	-37
-178	-137	-21
-170	-142	-3
-214	-123	-11
-282	-89	-24
-319	-46	-29
-267	-4	-20
-118	38	-3
85	80	-10
269	119	-18
373	155	-17
379	178	-18
312	179	-14
216	145	-16
139	79	-15
78	-19	-12
14	-130	-34
-72	-234	-42
-179	-306	-9
-274	-326	-11
-314	-289	-28
-263	-196	-26
-137	-64	-34
30	72	-40
180	192	-30
266	266	-6
273	284	-8
216	250	-20
129	180	-27
33	100	-23
-64	31	-19
-170	-15	-36
-279	-45	-28
-380	-70	-27
-433	-103	-27
-406	-134	-9
-271	-145	-19
-53	-111	-20
195	-24	-25
404	92	-27
506	192	-18
496	218	-23
388	153	-33
242	17	-17
116	-123	-7
46	-195	-23
26	-163	-40
20	-47	-43
-12	83	-34
-92	147	-44
-214	101	-28
-344	-38	-13
-431	-200	-9
-447	-305	-10
-383	-297	-25
-263	-188	-24
-125	-27	-33
3	122	-35
104	213	-40
184	241	-30
253	223	-15
312	190	-3
346	153	2
330	110	-22
242	47	-19
90	-37	-7
-93	-129	-20
-247	-204	-31
-315	-238	-29
-277	-224	-23
-152	-169	-25
-1	-96	-24
111	-21	-28
139	43	-30
82	97	-36
-26	138	-36
-130	171	-36
-189	186	-44
-184	170	-36
-119	120	-5
-20	36	9
83	-62	-2
156	-148	-9
167	-195	-7
101	-183	-11
-30	-123	-7
-178	-38	-11
-267	34	-31
-228	64	-46
-35	50	-46
260	13	-31
548	-13	-15
705	-4	4
653	38	1
419	85	-11
102	101	-25
-163	63	-27
-288	-19	-20
-271	-111	-21
-179	-178	-26
-109	-196	-12
-110	-179	-7
-174	-150	-38
-232	-128	-39
-234	-122	-33
-166	-109	-28
-70	-68	-46
-11	12	-61
-18	120	-36
-67	222	-19
-101	284	-12
-66	292	-21
40	251	-32
163	179	-24
228	103	-12
185	33	-17
48	-26	-10
-120	-77	4
-245	-120	-4
-274	-144	-25
-225	-141	-30
-133	-107	-25
-50	-44	-22
4	27	-28
47	86	-43
102	121	-22
172	128	-26
229	113	-36
229	89	-24
140	56	-7
-17	14	-13
-189	-41	-37
-295	-114	-20
-281	-187	-7
-148	-236	-16
43	-230	-21
206	-164	-25
275	-60	-30
231	40	-24
119	96	-28
12	94	-35
-27	50	-25
19	10	-18
111	10	-23
191	58	-32
196	128	-24
111	170	-33
-37	155	-36
-188	82	-27
-285	-13	-35
-303	-89	-31
-255	-124	-30
-180	-129	-20
-119	-137	-16
-98	-166	-7
-104	-205	11
-107	-211	5
-64	-147	-12
40	-4	-14
195	171	-9
352	301	-25
459	325	-27
461	215	-19
346	26	-12
155	-166	-11
-56	-280	-16
-214	-281	-34
-276	-194	-34
-245	-75	-24
-163	19	-31
-87	62	-40
-53	69	-38
-58	67	-30
-65	84	-44
-33	118	-36
46	153	-27
139	159	-6
182	128	10
122	67	10
-34	-3	14
-227	-47	-67
-348	-47	-89
-318	-1	-40
-125	70	-48
162	131	6
411	139	6
506	68	-19
392	-77	3
120	-256	-21
-184	-393	-16
-383	-437	-27
-392	-348	-24
-226	-156	-22
28	70	-26
238	248	-34
313	319	-44
229	274	-4
41	154	10
-159	20	-5
-291	-85	-21
-328	-152	-32
-285	-192	-25
-210	-222	-15
-138	-230	-43
-79	-192	-48
-23	-89	-28
49	79	-30
140	261	-3
236	393	-5
301	419	-16
317	335	-24
275	188	-36
188	46	-20
77	-34	-30
-43	-43	-32
-153	-18	-33
-242	-9	-24
-291	-48	-9
-287	-128	-17
-221	-206	-8
-105	-237	-5
24	-204	-7
127	-123	-15
175	-38	-24
167	18	-26
126	34	-30
93	32	-26
91	36	-30
119	61	-31
150	95	-24
151	106	-8
100	77	-12
4	0	-18
-108	-92	5
-206	-160	-15
-270	-175	-66
-310	-134	-67
-338	-58	-62
-364	28	-49
-371	109	-50
-321	182	-70
-195	248	-54
14	301	-33
263	324	-7
484	280	1
606	163	-6
600	-20	2
484	-217	10
319	-378	4
154	-453	-7
23	-441	-21
-71	-375	-14
-151	-292	2
-216	-227	6
-259	-176	-7
-247	-122	-37
-170	-39	-47
-47	75	-56
68	197	-59
118	290	-48
75	329	-37
-38	308	-43
-159	249	-28
-223	187	4
-202	140	14
-127	103	17
-52	57	24
-29	-20	0
-63	-123	-17
-116	-229	2
-126	-288	-5
-60	-265	-22
65	-160	-36
196	-2	-28
270	147	-38
266	233	-55
204	227	-56
144	148	-35
125	45	-3
154	-27	-11
190	-37	-19
175	3	-17
83	54	-21
-72	72	-31
-239	36	-26
-353	-39	-31
-382	-119	-36
-333	-164	-19
-245	-158	-18
-155	-112	-16
-88	-58	-27
-42	-16	-33
-14	12	-35
2	43	-36
-7	94	-31
-46	158	-35
-108	207	-42
-153	205	-35
-136	135	-15
-30	9	1
159	-134	18
371	-243	20
520	-286	7
537	-263	-9
414	-205	-24
194	-135	-22
-28	-71	-18
-162	-15	-32
-164	43	-43
-51	96	-25
102	131	-21
212	126	-29
225	78	-34
137	6	-43
-7	-52	-49
-152	-59	-32
-257	-14	-26
-308	53	-32
-321	91	-16
-318	62	-14
-302	-30	-19
-264	-139	-33
-195	-202	-34
-91	-176	-19
33	-64	-15
143	81	-25
216	195	-28
245	241	-12
241	215	-27
219	162	-38
186	117	-35
138	103	-31
59	96	-19
-46	63	2
-167	-15	6
-260	-120	6
-299	-201	-11
-273	-213	-39
-205	-140	-39
-139	-18	-38
-112	93	-38
-131	138	-60
-166	110	-34
-168	47	-5
-90	7	7
72	27	16
287	92	-3
495	147	6
626	124	-5
646	-3	-24
544	-206	-32
346	-409	-38
110	-527	-38
-111	-510	-34
-271	-362	-40
-333	-141	-40
-292	80	-42
-176	241	-27
-24	312	1
110	299	-12
184	224	-13
175	128	-8
94	38	-22
-26	-24	-28
-148	-48	-36
-240	-42	-32
-292	-20	-7
-315	-5	-12
-320	-11	-29
-314	-35	-32
-295	-61	-31
-245	-62	-23
-153	-24	-6
-20	47	-27
133	125	-40
275	178	-14
368	182	-16
383	141	-13
320	82	-18
204	26	-9
72	-8	-12
-45	-29	-15
-127	-52	-10
-178	-94	-12
-205	-152	-8
-222	-211	-21
-221	-249	-26
-190	-243	-51
-118	-188	-53
-8	-87	-48
117	43	-44
222	177	-39
273	287	-45
262	340	-24
206	315	-21
133	204	-18
80	41	-4
43	-119	-10
15	-224	-18
-31	-233	-26
-107	-161	-18
-204	-54	3
-285	20	-3
-314	21	-13
-262	-45	-27
-143	-133	-41
14	-175	-32
158	-137	-27
248	-22	-34
263	119	-38
211	228	-27
110	253	-22
-12	196	-28
-129	83	-40
-227	-43	-38
-290	-145	-35
-310	-207	-32
-280	-227	-19
-203	-206	-2
-90	-145	14
40	-47	-7
158	71	-27
239	186	-34
263	256	-35
238	255	-27
175	177	-24
119	57	-25
98	-51	-21
132	-102	-18
216	-77	-12
317	5	-1
375	89	-15
360	117	-25
248	67	-22
71	-47	-28
-123	-183	-1
-273	-278	3
-345	-292	-26
-336	-223	-17
-279	-92	-15
-222	56	-25
-197	180	-40
-211	253	-31
-235	269	-11
-228	235	-20
-156	163	-13
-16	70	-24
154	-23	-27
299	-107	-27
355	-171	-25
299	-209	-20
139	-228	-21
-63	-225	-28
-241	-207	-33
-325	-167	-20
-291	-97	-25
-159	-2	-38
15	106	-43
167	208	-30
249	268	-14
253	271	-13
202	215	-21
125	129	-28
55	34	-22
-3	-42	-24
-60	-93	-26
-129	-127	-36
-207	-159	-33
-273	-192	-18
-296	-222	-13
-252	-228	-1
-143	-190	3
2	-108	-22
142	7	-21
241	125	-7
279	221	-28
263	272	-36
216	275	-37
159	241	-30
97	180	-23
33	108	-25
-40	33	-19
-125	-39	-15
-210	-104	-20
-280	-155	-25
-318	-178	-27
-321	-168	-33
-296	-122	-39
-253	-46	-39
-195	43	-40
-116	123	-41
1	165	-35
159	151	-15
337	76	7
498	-38	11
592	-152	19
579	-219	19
455	-210	0
251	-126	-9
17	-4	-18
-189	101	-23
-331	136	-33
-393	85	-40
-390	-26	-33
-335	-140	-45
-244	-198	-52
-125	-160	-48
6	-40	-34
136	123	-35
236	270	-32
278	353	-23
245	343	-12
145	244	-6
7	85	-32
-120	-104	-24
-197	-274	-13
-199	-390	-11
-136	-416	-22
-46	-353	-27
27	-227	-13
52	-81	-19
30	34	-27
-20	94	-36
-58	99	-27
-58	80	-17
-15	69	-15
47	81	-35
97	110	-42
105	129	-18
72	123	-12
19	94	-18
-26	59	-2
-40	37	-7
-38	29	-12
-40	13	-6
-71	-27	-23
-135	-95	-21
-200	-167	-27
-222	-200	-24
-162	-166	-9
-15	-66	-18
181	56	-23
358	151	-23
456	187	-32
436	158	-52
309	99	-40
111	43	-24
-94	14	-24
-261	2	-24
-358	-15	-23
-375	-49	-18
-325	-95	-16
-227	-123	-6
-111	-109	-17
-2	-48	-41
78	36	-44
127	103	-26
153	121	-9
171	89	-7
190	29	-20
199	-19	-19
175	-26	-24
103	12	-35
-20	71	-32
-151	115	-30
-229	114	-32
-207	59	-37
-81	-38	-21
98	-144	-2
236	-230	-18
255	-271	-19
140	-263	-1
-48	-215	-4
-212	-140	-27
-253	-53	-26
-150	39	-17
48	127	-26
234	200	-34
314	238	-30
253	225	-20
83	152	-36
-109	30	-44
-258	-111	-25
-331	-229	-21
-352	-292	-18
-356	-283	-17
-366	-218	-34
-362	-117	-40
-304	-7	-30
-159	103	-17
62	210	-17
301	311	-20
470	388	-16
508	410	-25
415	350	-20
239	205	-9
71	7	-18
-13	-178	-2
4	-288	1
85	-292	2
147	-214	-9
122	-112	-29
-6	-52	-29
-194	-64	-42
-357	-127	-34
-410	-186	-31
-315	-177	-48
-104	-79	-51
138	81	-42
320	241	-42
370	338	-25
280	339	-19
103	257	-4
-92	135	0
-235	18	-16
-285	-72	-19
-251	-141	-17
-165	-196	-6
-80	-249	-21
-32	-292	-29
-44	-303	-32
-104	-268	-16
-174	-188	-12
-206	-84	-27
-155	20	-34
-3	109	-35
225	179	-18
459	236	-13
624	279	-17
648	300	-25
520	272	-13
274	183	-3
-4	41	-8
-235	-117	-9
-366	-243	-15
-392	-296	-21
-347	-263	-19
-274	-175	-19
-205	-74	-16
-136	1	-24
-55	34	-39
46	40	-41
150	43	-41
213	62	-32
198	93	-40
86	121	-46
-97	130	-42
-288	121	-25
-410	109	-27
-419	106	-51
-311	117	-23
-134	116	-8
39	71	0
159	-32	19
211	-179	13
229	-321	4
258	-398	3
330	-376	-6
430	-258	-55
506	-89	-71
493	68	-50
363	170	-32
140	205	-27
-99	185	-35
-271	138	-25
-333	80	-16
-292	14	-22
-217	-60	-22
-174	-140	-13
-200	-198	-6
-274	-207	-15
-347	-138	-19
-364	-4	-22
-311	166	-64
-214	321	-80
-109	413	-44
-16	416	-23
78	334	-16
202	192	-10
368	21	13
541	-139	31
642	-258	24
600	-312	22
395	-291	7
75	-209	-32
-247	-99	-32
-455	-10	-14
-489	19	-17
-371	-24	-36
-180	-116	-53
-15	-196	-56
70	-203	-32
72	-104	-21
33	81	-50
-4	282	-52
-18	410	-42
-16	402	-25
-24	250	-13
-56	10	-10
-109	-218	-19
-165	-352	-33
-207	-353	-32
-228	-248	-31
-229	-108	-11
-208	4	9
-153	51	0
-51	52	-15
94	41	-20
257	54	-30
393	91	-21
450	117	-25
414	101	-9
302	27	0
172	-71	-22
64	-154	-21
5	-171	-22
-22	-114	-24
-49	-20	-24
-105	59	-32
-178	84	-31
-241	50	-35
-250	-4	-40
-191	-33	-42
-80	-4	-24
41	74	5
125	166	-16
154	222	-51
132	222	-30
89	166	-20
51	85	-25
25	5	-20
5	-60	-27
-29	-112	-12
-82	-160	-18
-148	-201	-27
-201	-227	-22
-224	-218	0
-195	-174	-7
-119	-101	-42
-3	-26	-37
130	27	-23
253	58	-7
336	84	-30
351	131	-47
296	211	-27
179	299	-8
37	352	3
-86	319	-11
-155	186	-16
-156	-17	-41
-105	-211	-62
-35	-325	-23
15	-316	-12
24	-205	-19
-17	-67	-27
-91	23	-13
-170	27	-15
-221	-29	-19
-214	-86	-16
-143	-85	-33
-17	-20	-9
128	59	-15
245	82	-9
280	3	-9
211	-147	-55
43	-286	-33
-172	-322	-25
-371	-219	-43
-488	-27	-36
-484	156	-22
-354	237	-21
-133	194	-21
130	80	-14
373	-11	-14
558	-11	-4
633	70	-9
595	170	-3
450	202	-10
234	135	-20
1	5	-20
-194	-105	-36
-315	-131	-33
-351	-69	-27
-325	19	-16
-272	55	-12
-224	0	-7
-191	-120	-25
-164	-227	-24
-122	-245	-20
-55	-153	-48
22	20	-56
91	194	-60
127	313	-43
123	357	-35
97	336	-28
77	274	-6
78	174	8
94	38	0
102	-134	-10
67	-305	-8
-19	-417	-16
-138	-419	-19
-247	-306	-18
-296	-134	-18
-253	17	-20
-128	80	-20
36	50	-24
194	-13	-32
296	-31	-40
323	38	-35
285	170	-26
214	286	-23
129	311	-16
52	215	-25
-12	43	-30
-69	-120	-32
-124	-206	-37
-176	-200	-20
-214	-139	-12
-231	-92	-13
-210	-87	-7
-158	-117	-12
-77	-134	-30
12	-97	-21
89	-5	-14
141	104	-14
166	174	-18
172	178	-27
169	123	-36
164	57	-36
150	24	-30
107	38	-23
17	77	-19
-118	86	-31
-280	39	-32
-416	-64	-30
-476	-180	-32
-431	-252	-26
-279	-241	-4
-65	-141	1
153	12	-11
324	170	-13
417	286	-30
435	332	-25
396	299	-24
324	204	-21
234	70	0
135	-68	-10
37	-178	-25
-49	-233	-38
-112	-228	-27
-148	-181	-7
-157	-133	-26
-152	-116	-30
-145	-145	-27
-141	-194	-23
-130	-222	-28
-102	-179	-29
-45	-56	-18
23	112	-40
86	268	-37
118	345	-38
110	315	-23
67	194	3
7	41	-11
-51	-82	-28
-106	-143	-32
-153	-142	-9
-200	-115	-8
-232	-96	-7
-232	-103	-16
-184	-119	-28
-85	-114	-23
40	-61	-30
158	39	-30
234	162	-15
253	265	-6
234	301	-29
202	262	-45
175	150	-27
145	3	-23
86	-129	-50
-24	-204	-54
-183	-196	-10
-350	-116	-7
-452	-1	-22
-444	90	-12
-313	106	-4
-108	35	3
96	-93	-27
229	-208	-33
260	-243	-18
216	-158	-31
163	20	-35
144	210	-35
181	326	-32
236	305	-26
252	168	-26
188	-23	-26
42	-171	-35
-136	-222	-29
-285	-171	-27
-350	-82	-38
-319	-20	-12
-229	-21	-17
-124	-69	-32
-44	-107	-17
2	-81	-13
36	23	-12
83	170	-21
144	289	-13
204	327	-10
234	264	-10
210	131	-13
137	-22	-14
42	-157	-8
-37	-251	-5
-82	-313	-6
-90	-346	-12
-86	-346	-16
-88	-301	-16
-96	-204	-29
-99	-67	-37
-74	75	-45
-16	181	-40
52	232	-28
97	228	-27
89	201	-24
30	174	-24
-46	165	-28
-91	153	-36
-71	114	-25
4	40	-22
90	-58	-31
131	-145	-25
92	-192	-21
-13	-184	-23
-132	-136	-25
-195	-79	-9
-169	-36	-11
-63	-17	-30
66	0	-22
151	24	-23
150	63	-40
57	104	-57
-76	118	-37
-193	97	-12
-244	38	-33
-209	-29	-39
-105	-84	-5
30	-100	9
156	-75	-4
245	-19	21
292	52	13
296	117	-20
263	165	-19
211	170	-38
144	124	-38
74	31	-33
10	-86	-30
-39	-176	-30
-66	-195	-33
-72	-123	-33
-68	10	-26
-69	137	-20
-90	191	-27
-139	132	-30
-206	-7	-34
-273	-161	-35
-314	-248	-29
-306	-238	-23
-245	-151	-16
-136	-52	-11
-6	-2	-10
118	-9	-9
208	-37	-8
244	-25	-17
214	62	-31
130	203	-35
16	332	-33
-86	372	-34
-133	289	-15
-107	113	1
-20	-83	-5
85	-228	-15
144	-281	-18
122	-263	1
20	-215	-16
-109	-178	-37
-193	-163	-36
-181	-147	-51
-65	-105	-36
98	-26	-16
231	71	-14
274	152	-19
216	182	-30
101	150	-32
-8	77	-36
-71	-8	-23
-89	-74	-20
-99	-106	-22
-145	-107	-7
-232	-82	11
-318	-41	18
-344	16	5
-263	84	-15
-93	153	-36
110	202	-47
269	215	-44
331	191	-27
300	131	-18
226	63	-30
172	8	-32
170	-22	-26
200	-31	-22
208	-45	-14
147	-83	-13
11	-153	-25
-160	-242	-37
-291	-312	-40
-333	-330	-25
-267	-280	-26
-134	-174	-32
9	-48	-24
114	57	-12
161	124	-18
161	166	-46
136	207	-38
103	268	-38
59	337	-31
2	372	-5
-68	316	-8
-137	157	-30
-185	-74	-7
-198	-289	11
-187	-395	-21
-170	-356	-30
-159	-195	-36
-152	-3	-37
-126	123	-30
-60	131	-29
51	47	-25
184	-53	-22
291	-88	-22
333	-25	-30
297	97	-33
204	197	-24
93	209	-18
-2	113	-21
-74	-46	-21
-127	-195	-26
-184	-271	-25
-248	-256	-24
-311	-178	-23
-350	-84	-31
-351	-11	-40
-315	31	-28
-247	51	-22
-153	77	-17
-23	117	-7
156	174	7
379	233	20
611	272	5
776	268	-16
809	202	-12
662	78	-16
366	-90	-20
2	-256	-24
-318	-368	-23
-509	-374	-28
-537	-276	-25
-436	-117	-6
-272	32	-21
-107	106	-39
26	85	-48
124	4	-32
188	-65	-31
208	-67	-48
156	1	-52
22	92	-41
-176	130	-21
-371	75	-34
-474	-58	-35
-420	-192	-4
-210	-242	30
80	-171	19
329	-18	-12
430	130	-1
354	193	-13
154	139	-30
-52	22	-45
-158	-72	-49
-114	-72	-32
40	33	-25
204	183	-11
283	291	-8
234	290	-8
81	178	-25
-99	7	-25
-227	-142	-19
-272	-222	-36
-248	-225	-28
-205	-183	-15
-181	-138	-13
-178	-114	-30
-172	-102	-15
-122	-79	-8
-19	-25	-28
116	55	-42
234	145	-44
294	213	-34
273	241	-43
190	218	-35
84	154	-32
-14	58	-16
-84	-40	-16
-133	-118	-31
-170	-152	-20
-207	-129	-25
-228	-62	-20
-214	16	-22
-156	67	-24
-54	66	-37
55	22	-40
143	-37	-29
175	-68	-23
159	-53	-13
110	-3	-17
65	48	-16
51	64	-22
69	33	-19
102	-32	-13
115	-99	-12
93	-147	-2
28	-169	-7
-54	-179	-18
-132	-184	-19
-182	-175	-7
-198	-138	-7
-186	-60	-27
-157	45	-44
-107	149	-48
-24	208	-36
106	207	-29
276	164	-19
451	116	-12
565	96	-18
558	98	-4
399	89	-2
110	28	-8
-226	-93	-3
-508	-235	-21
-651	-330	-48
-621	-317	-32
-459	-186	-12
-233	13	-4
-20	194	-12
139	280	-31
245	260	-52
314	165	-69
366	65	-25
381	16	-30
328	30	-50
172	77	-44
-68	104	-47
-350	77	-46
-580	-15	-46
-684	-147	-25
-619	-280	-8
-415	-366	13
-128	-376	22
155	-292	17
372	-127	-1
490	79	-11
506	270	-17
452	388	-12
346	395	-12
222	299	-19
106	145	-13
18	-4	-27
-30	-102	-34
-52	-139	-30
-71	-143	-44
-122	-147	-38
-212	-158	-32
-324	-160	-44
-405	-118	-36
-406	-19	-30
-297	113	-28
-99	221	-19
128	244	-16
306	177	-19
385	49	-12
357	-61	-15
260	-106	-15
158	-76	-20
92	-19	-15
68	2	4
56	-49	-14
16	-149	-27
-66	-231	-25
-179	-237	-37
-277	-153	-30
-317	-23	-33
-277	79	-34
-174	99	-24
-43	39	-28
77	-42	-30
160	-76	-25
207	-20	-19
229	97	-23
233	211	-25
211	254	-21
159	204	-19
62	94	-16
-66	-13	-14
-201	-65	-25
-304	-59	-16
-344	-31	-4
-319	-27	-23
-244	-62	-45
-157	-112	-42
-87	-124	-26
-52	-60	-23
-42	64	-32
-28	195	-25
12	261	-38
90	223	-58
187	101	-26
269	-41	-24
291	-129	-14
242	-137	-9
131	-88	-17
6	-45	8
-89	-61	13
-118	-139	6
-89	-230	-12
-44	-263	-18
-26	-198	-24
-57	-48	-40
-115	119	-40
-143	229	-16
-89	244	-3
67	183	3
280	98	1
462	32	-16
525	-5	-24
421	-47	-30
175	-127	-22
-117	-252	-30
-361	-370	-27
-480	-401	-21
-455	-297	-32
-332	-74	-37
-179	186	-50
-48	366	-47
40	398	-42
94	278	-30
132	96	-30
165	-43	-27
180	-68	-11
162	12	-4
105	129	-15
17	202	-36
-84	179	-30
-180	83	-28
-262	-33	-28
-324	-112	-16
-357	-131	-11
-339	-114	-13
-250	-97	-27
-81	-102	-14
139	-113	6
352	-102	-12
493	-46	-14
508	41	-15
415	116	-26
257	129	-31
105	61	-32
13	-51	-25
-12	-152	-23
-10	-178	-34
-29	-118	-28
-100	-10	-10
-206	82	-1
-300	97	-18
-330	33	-29
-272	-71	-27
-149	-149	-36
-5	-147	-27
107	-60	-33
170	66	-43
185	171	-40
182	215	-23
175	189	-6
169	123	-10
143	57	-9
84	20	-12
-12	3	-23
-125	-17	-16
-224	-56	-9
-281	-117	-30
-285	-170	-53
-239	-182	-40
-161	-135	-23
-63	-42	-18
36	57	-10
130	127	-17
195	138	-29
216	105	-44
179	51	-31
83	15	-18
-44	8	-23
-163	20	-19
-229	25	-22
-225	5	-30
-166	-39	-23
-98	-89	-9
-68	-112	-25
-102	-95	-41
-173	-42	-16
-217	18	-8
-166	55	-2
22	53	15
310	25	-10
606	0	-42
786	7	-36
769	51	-19
541	111	-1
199	138	23
-135	104	13
-343	6	-23
-386	-117	-33
-308	-201	-40
-206	-210	-36
-160	-139	-49
-191	-37	-91
-255	35	-89
-277	35	-58
-213	-22	-29
-76	-87	-12
81	-96	-9
189	-19	-21
225	106	-24
210	211	-31
191	223	-17
191	121	15
196	-47	-1
148	-200	-4
1	-263	1
-241	-226	-9
-508	-127	-26
-692	-46	-31
-708	-36	-27
-524	-96	-18
-194	-166	-5
183	-170	-26
506	-65	-39
706	129	-27
759	341	-19
688	477	-9
526	477	9
312	340	4
89	114	-17
-108	-118	-30
-245	-277	-36
-315	-322	-30
-324	-254	-20
-306	-113	-35
-288	41	-32
-281	149	-36
-271	168	-38
-221	104	-27
-113	-8	-39
40	-106	-36
195	-133	-30
300	-77	-15
317	41	-17
253	152	-10
143	197	3
33	142	-16
-46	18	-7
-96	-122	-15
-129	-212	-37
-169	-225	-24
-207	-174	-23
-231	-104	-26
-210	-59	-24
-141	-49	-23
-37	-50	-30
74	-23	-26
155	48	-21
194	150	-26
189	233	-24
163	252	-18
130	194	-9
100	80	-17
62	-34	-23
9	-109	-20
-66	-131	-39
-161	-121	-40
-256	-112	-35
-328	-119	-31
-347	-131	-19
-299	-117	-28
-172	-53	-40
10	54	-41
202	170	-18
346	241	-13
401	238	-32
342	166	-40
202	65	-30
50	-19	15
-36	-64	32
-15	-80	12
96	-102	-15
222	-159	-12
266	-251	1
169	-336	-35
-59	-358	-42
-339	-282	-48
-550	-111	-56
-600	103	-51
-463	291	-59
-200	400	-31
90	410	-9
314	345	6
422	250	-9
417	158	-23
342	81	-24
242	9	-38
133	-71	-24
24	-168	-10
-90	-262	11
-187	-330	-5
-241	-344	-20
-231	-300	-30
-161	-200	-50
-70	-68	-28
-9	65	-26
-8	171	-40
-56	230	-19
-108	228	-15
-107	171	-20
-36	92	-18
83	11	-5
194	-44	-9
234	-67	-25
182	-68	-19
62	-71	-4
-72	-89	-5
-172	-118	-31
-212	-143	-48
-203	-139	-43
-169	-97	-25
-126	-26	-23
-77	50	-33
-6	103	-28
89	121	-30
189	109	-25
262	91	-8
278	85	-17
225	99	-19
124	129	-14
10	155	-17
-86	156	-17
-151	114	-23
-195	32	-19
-228	-77	-20
-249	-186	-27
-244	-258	-23
-195	-263	-27
-96	-192	-33
36	-62	-36
166	79	-32
257	183	-38
288	211	-33
266	170	-23
212	89	-14
148	15	-5
76	-21	-15
-4	-21	-11
-101	-15	-1
-202	-41	-8
-281	-112	-12
-306	-203	-19
-257	-264	-28
-143	-259	-32
1	-171	-38
128	-28	-32
207	116	-21
225	214	-36
196	244	-45
147	222	-18
105	170	1
75	114	15
52	60	-5
29	-3	-38
-5	-78	-21
-44	-154	-20
-91	-202	-35
-136	-196	-33
-179	-128	-40
-217	-25	-32
-237	62	-20
-226	96	-28
-157	59	-25
-36	-16	-18
118	-81	-18
257	-87	-16
325	-26	-26
277	64	-12
117	131	-24
-114	131	-47
-333	67	-41
-459	-23	-54
-435	-81	-17
-253	-68	16
36	2	-6
345	80	-43
575	104	-42
660	43	-21
575	-85	-16
373	-211	-10
127	-268	-29
-74	-215	-40
-168	-68	-32
-154	103	-26
-76	228	-16
-4	257	-12
1	200	10
-81	102	18
-221	21	-16
-361	-9	-13
-448	0	-12
-450	6	-11
-370	-35	-9
-240	-130	-32
-96	-249	-45
37	-333	-48
151	-325	-17
242	-215	-12
312	-41	-7
353	131	1
360	243	-47
325	274	-68
245	249	-52
127	213	-57
-14	196	-27
-161	188	-3
-290	147	-15
-371	36	-24
-380	-141	-26
-311	-329	-17
-184	-441	-15
-37	-408	-23
82	-227	-13
144	27	-23
147	251	-32
115	354	-18
87	318	-18
89	192	-16
114	62	-24
139	-5	-14
135	-5	-23
82	19	-23
-8	13	-6
-111	-49	-18
-199	-144	-26
-269	-222	-28
-319	-232	-31
-350	-170	-18
-345	-69	-11
-268	17	-24
-89	59	-24
189	61	-20
506	53	-13
769	63	-16
869	97	-35
754	130	-37
455	126	-29
70	66	-24
-269	-34	-24
-463	-139	-28
-489	-208	-31
-392	-217	-26
-262	-171	-10
-167	-95	-20
-128	-10	-51
-122	74	-25
-99	154	-10
-31	229	-11
67	279	-2
159	280	-13
200	215	-18
179	103	-23
115	-27	-15
47	-116	-11
-1	-134	-15
-33	-96	-31
-75	-51	-31
-147	-61	-22
-240	-153	-9
-312	-288	-30
-312	-401	-79
-211	-407	-56
-24	-277	-33
183	-49	-26
332	186	-32
368	341	-38
287	370	-15
136	289	-16
-15	162	-11
-110	43	-17
-135	-34	-32
-115	-82	-18
-99	-123	-7
-119	-158	12
-185	-169	4
-262	-120	-36
-311	-5	-33
-281	144	-19
-162	261	-7
28	291	1
242	208	-9
428	50	-18
536	-108	-28
545	-203	-30
462	-203	-33
319	-133	-42
147	-43	-40
-19	19	-32
-164	34	-28
-279	16	-25
-364	-13	-20
-417	-33	-7
-431	-46	-14
-400	-55	-30
-325	-60	-46
-218	-52	-57
-79	-11	-32
80	62	1
250	150	10
411	204	-8
536	192	-19
579	100	-21
504	-43	0
308	-179	19
31	-257	-2
-242	-251	-15
-426	-175	-21
-459	-79	-26
-345	-10	-31
-153	5	-36
20	-17	-45
107	-39	-51
96	-19	-49
33	54	-36
-10	165	-18
12	261	-27
87	300	-39
163	261	-27
175	158	-9
96	30	8
-45	-81	-1
-188	-143	-19
-269	-159	-11
-263	-153	-16
-202	-145	-21
-125	-153	-24
-74	-164	-30
-46	-160	-36
-23	-118	-25
32	-41	-16
120	51	-25
214	131	-34
270	171	-31
259	171	-23
182	145	-19
71	121	-12
-28	113	-19
-97	113	-38
-141	103	-38
-191	57	-36
-257	-21	-34
-329	-111	-24
-360	-173	-20
-304	-180	-27
-139	-130	-23
107	-53	0
365	7	6
553	19	-12
618	-13	-9
547	-55	-7
375	-59	-15
163	5	-34
-43	126	-58
-217	251	-42
-345	307	-33
-426	241	-19
-459	58	-19
-436	-178	-31
-353	-372	-11
-225	-432	-21
-78	-326	-38
53	-101	-39
137	144	-34
166	301	-32
151	310	-25
123	188	-7
107	13	-2
121	-125	-21
153	-176	-28
184	-154	-17
189	-121	-12
147	-131	-6
61	-196	2
-54	-268	-5
-166	-278	-26
-247	-185	-20
-271	-13	-20
-235	164	-25
-142	267	-35
-19	261	-52
107	181	-36
206	99	-17
254	81	-7
237	134	-27
157	211	-21
40	237	-13
-82	170	-30
-166	29	-26
-194	-122	-23
-157	-215	-22
-81	-218	-37
-5	-157	-26
36	-89	-18
30	-57	-23
-5	-71	-17
-35	-95	-23
-23	-84	-25
41	-21	-21
139	72	-26
222	150	-24
245	171	-26
186	132	-38
58	66	-31
-94	18	-26
-221	12	-20
-281	37	-19
-270	55	-25
-203	30	-12
-110	-46	9
-21	-150	1
48	-226	-8
92	-233	-7
115	-163	-19
120	-45	-26
115	70	-34
107	134	-28
106	128	-15
114	72	-18
126	5	-27
128	-36	-38
98	-31	-45
24	8	-38
-85	44	-20
-202	40	-24
-290	-16	-10
-313	-113	0
-262	-202	-13
-158	-227	-27
-32	-156	-52
72	7	-55
137	205	-30
157	362	-35
148	405	-37
127	310	-28
107	109	-5
83	-113	16
47	-268	0
-9	-301	-13
-88	-222	-12
-174	-80	-11
-242	46	-26
-262	105	-31
-228	93	-28
-134	45	-20
-14	8	-28
95	5	-26
158	28	-34
160	43	-51
124	28	-46
87	-14	-41
87	-56	-28
135	-66	-23
210	-30	-8
257	28	-16
226	67	-9
100	51	0
-94	-21	-7
-288	-116	-5
-416	-185	-19
-428	-190	-21
-333	-133	-31
-175	-40	-39
-10	43	-43
121	98	-44
207	120	-32
266	129	-29
313	142	-35
341	160	-28
331	161	-8
250	110	4
91	2	24
-116	-159	9
-308	-326	-2
-421	-443	-10
-412	-460	-28
-296	-376	-21
-127	-195	-34
24	20	-34
106	210	-36
118	323	-37
99	341	-32
100	280	-30
147	186	-23
231	95	-34
302	38	-23
314	17	-7
236	12	-30
81	10	-39
-107	-1	-34
-280	-11	-32
-407	-11	-35
-480	6	-40
-497	26	-26
-459	29	-10
-357	4	-12
-175	-43	-13
70	-88	-5
332	-98	-13
537	-59	2
618	15	24
547	89	-1
358	127	-34
120	110	-47
-83	49	-38
-202	-25	-37
-241	-83	-32
-229	-112	-34
-210	-117	-29
-203	-120	-24
-197	-129	-30
-163	-135	-10
-88	-122	-14
18	-71	-24
124	14	-15
196	106	-23
219	169	-57
203	175	-55
172	129	-35
144	53	-36
121	-16	-29
83	-53	-5
18	-55	8
-67	-45	-9
-148	-44	-9
-194	-62	8
-188	-88	-7
-140	-97	-43
-86	-69	-62
-58	-9	-45
-75	63	-24
-113	120	-8
-134	140	-5
-102	128	-16
-8	104	-24
115	85	-40
210	78	-42
227	67	-37
152	34	-19
13	-31	-3
-131	-121	2
-227	-199	-11
-245	-233	-13
-201	-205	-6
-140	-125	-13
-96	-34	-9
-82	30	-15
-75	45	-16
-42	27	-29
35	5	-35
149	18	-37
259	79	-35
328	158	-5
334	212	-5
285	197	-19
212	104	-32
140	-30	-40
76	-152	-52
5	-209	-46
-83	-195	-31
-181	-134	-60
-257	-75	-51
-270	-41	-25
-201	-31	-40
-69	-18	-21
72	19	-5
166	74	-7
180	112	-6
122	92	7
39	11	-4
-23	-97	-27
-46	-169	-12
-43	-160	0
-47	-80	1
-79	18	-16
-132	64	-23
-173	29	-29
-173	-61	-49
-120	-131	-46
-33	-114	-24
49	1	-6
102	165	-9
120	287	-9
124	308	-19
133	223	-35
159	92	-29
175	-11	-25
163	-42	-25
96	-15	-18
-12	13	-25
-134	-6	-37
-230	-88	-32
-273	-189	-35
-267	-259	-36
-222	-254	-32
-160	-178	-19
-90	-59	-5
-11	59	-6
77	153	-23
169	215	-27
241	248	-9
269	247	-9
242	208	-10
169	125	-12
77	28	-19
-6	-45	-32
-64	-62	-48
-110	-18	-38
-165	46	-32
-247	72	-56
-343	16	-55
-412	-110	-36
-392	-246	-35
-250	-307	-34
6	-249	-7
305	-88	12
544	96	0
626	207	-5
519	188	-6
261	41	3
-35	-163	16
-250	-341	7
-304	-426	-16
-195	-393	-28
-7	-264	-28
151	-89	-18
192	92	-16
100	236	-15
-68	318	-37
-209	324	-72
-244	264	-51
-147	164	-31
33	71	-25
204	29	-31
286	56	-33
245	129	-10
109	190	-18
-56	181	-28
-189	80	-38
-255	-86	-30
-256	-246	-13
-218	-322	-14
-168	-286	-7
-119	-162	-23
-71	-23	-30
-19	55	-14
39	43	-9
95	-31	-3
141	-100	-10
175	-104	-13
198	-21	-5
203	113	-22
187	227	-42
132	261	-34
39	198	-40
-83	63	-32
-198	-79	-15
-274	-178	-17
-281	-205	-20
-226	-174	-34
-129	-110	-36
-32	-50	-25
35	-8	-16
71	17	-33
86	35	-30
99	57	-23
115	85	-26
129	114	-20
125	130	-34
94	124	-24
41	91	-13
-16	29	-18
-59	-43	-20
-85	-110	-22
-96	-149	-21
-109	-148	-26
-124	-109	-38
-139	-53	-35
-135	-5	-38
-99	18	-32
-29	12	0
60	-3	1
147	-8	-14
209	15	-25
237	60	-22
234	104	-24
200	119	-18
139	88	-13
46	18	-12
-76	-63	-18
-212	-121	-32
-336	-132	-21
-405	-105	-31
-392	-60	-10
-299	-31	-4
-150	-29	-24
6	-51	-21
119	-68	-16
159	-58	-18
139	-9	-27
96	75	-21
80	166	-23
121	239	-28
221	266	-25
340	237	-12
423	154	-6
422	29	-25
317	-110	-42
129	-234	-32
-86	-305	-24
-262	-306	-17
-357	-233	-29
-345	-113	-35
-241	12	-25
-83	104	-33
83	149	-27
211	161	-52
275	171	-93
259	205	-88
171	247	-49
32	252	-9
-126	173	2
-277	-9	16
-392	-254	38
-459	-473	3
-475	-563	-13
-443	-481	1
-366	-254	-18
-247	15	-10
-98	209	-10
65	261	-15
215	186	-5
326	68	-16
375	6	-24
371	45	-28
325	152	-40
257	239	-26
191	227	-25
122	92	-35
46	-104	-17
-46	-265	-33
-145	-316	-35
-226	-241	-33
-250	-102	-30
-206	22	-26
-101	69	-38
25	49	-32
125	7	-28
175	-2	-16
172	38	-9
144	100	-11
116	140	-6
102	129	-7
92	78	-14
62	24	-25
0	0	-27
-89	6	-17
-178	10	-17
-240	-19	-30
-253	-92	-25
-224	-170	-12
-168	-200	-25
-106	-145	-32
-42	-17	-24
23	124	-32
95	215	-42
163	221	-35
208	157	-31
206	80	-28
154	43	-28
66	61	-25
-22	103	-20
-78	113	-22
-91	55	-13
-82	-57	-8
-82	-181	-22
-111	-254	-28
-160	-256	-11
-193	-203	4
-165	-137	2
-52	-99	-15
124	-92	-18
306	-94	-8
422	-70	-34
419	-9	-39
290	71	-36
85	138	-26
-136	154	-19
-307	114	-25
-392	36	-15
-389	-48	-8
-315	-116	-14
-197	-156	-23
-58	-166	-23
81	-141	-35
202	-71	-41
279	47	-56
297	205	-61
251	352	-34
167	428	-20
80	386	-18
24	221	-12
9	-13	-2
14	-225	-11
7	-330	-20
-48	-297	-12
-148	-164	-16
-267	-12	-25
-352	75	-23
-366	59	-32
-299	-37	-24
-173	-141	-13
-28	-182	-17
104	-129	-29
202	-2	-24
269	131	2
313	213	2
326	208	-25
297	135	-42
219	43	-38
96	-23	-40
-50	-42	-19
-187	-33	-17
-285	-32	-31
-325	-62	-27
-321	-123	-36
-281	-182	-41
-218	-202	-24
-133	-155	-17
-24	-52	-30
107	71	-23
245	169	-21
353	212	-14
401	194	-10
371	135	-21
273	67	-16
137	7	-12
4	-33	-8
-101	-62	-14
-167	-86	-15
-201	-108	-18
-222	-125	-22
-233	-129	-17
-240	-121	-17
-229	-95	-18
-190	-56	-32
-119	-7	-36
-22	51	-33
88	114	-30
191	170	-22
269	201	-21
306	191	-38
291	131	-53
224	35	-36
109	-70	-22
-26	-153	-28
-158	-188	-13
-256	-170	2
-312	-112	-2
-321	-38	-17
-297	27	-42
-253	72	-47
-191	98	-43
-113	114	-30
-10	130	-11
118	148	-22
255	161	-18
373	161	-1
438	129	11
431	58	2
346	-53	-14
208	-195	-21
45	-330	-14
-105	-424	-4
-221	-437	-18
-290	-354	-47
-321	-190	-50
-325	10	-26
-316	174	-41
-281	259	-21
-202	238	-4
-60	150	-23
145	57	-15
384	30	1
584	91	1
671	205	-21
599	296	-35
365	274	-28
49	113	-22
-247	-158	-30
-431	-433	-20
-459	-596	-13
-379	-578	-22
-253	-378	-25
-156	-74	-23
-107	215	-22
-83	400	-39
-34	434	-28
68	350	-20
202	208	-21
306	79	-19
317	-3	-32
214	-33	-33
32	-36	-33
-152	-35	-37
-273	-43	-44
-298	-63	-35
-250	-85	-25
-181	-103	-21
-129	-108	-6
-108	-102	-3
-91	-80	-27
-51	-39	-46
26	17	-34
122	86	-37
207	148	-22
253	187	-9
250	186	-18
212	149	-17
157	84	-12
97	16	-3
28	-32	-20
-55	-54	-35
-157	-57	-44
-255	-64	-37
-321	-90	-24
-336	-136	-23
-281	-190	-18
-174	-217	-15
-35	-196	-24
104	-121	-27
228	-16	-14
317	85	-19
363	150	-19
352	168	-25
280	150	-24
145	119	-5
-28	94	0
-206	68	-1
-350	24	-20
-422	-51	-35
-424	-157	-27
-361	-254	-19
-263	-297	-26
-157	-249	-25
-49	-109	-16
51	81	-38
145	254	-32
225	349	-13
280	345	-22
302	260	-18
299	147	-33
273	47	-42
244	-8	-37
198	-36	-37
128	-69	-19
13	-131	-11
-143	-218	-4
-307	-296	-4
-415	-321	-12
-403	-271	-29
-256	-156	-24
-6	-23	-10
255	77	-10
432	112	-30
468	91	-48
363	53	-27
190	48	-16
36	95	-17
-38	171	-30
-38	229	-38
-10	215	-27
-20	112	-25
-100	-53	-2
-227	-215	2
-344	-308	-27
-392	-292	-42
-347	-181	-43
-228	-28	-32
-83	103	-29
36	162	-18
111	150	-6
147	93	-5
167	37	-26
180	17	-29
182	34	-24
150	63	-31
74	71	-32
-37	38	-36
-152	-36	-34
-236	-126	-23
-261	-198	-11
-228	-233	-25
-159	-218	-32
-80	-170	-22
-6	-102	-12
59	-30	-13
119	43	-11
180	122	-14
234	205	-18
269	279	-13
270	327	-21
237	322	-32
169	254	-28
75	130	-17
-28	-18	-8
-135	-159	-16
-234	-258	-33
-315	-301	-34
-362	-286	-27
-363	-230	-19
-311	-145	-30
-206	-48	-43
-72	54	-51
63	157	-47
172	244	-16
245	305	-2
279	316	-4
288	262	1
287	156	-6
280	18	-8
263	-108	-19
219	-185	-20
132	-192	-6
-2	-145	-13
-158	-84	-3
-291	-57	-16
-352	-102	-19
-308	-209	-19
-161	-334	-18
44	-395	-24
241	-340	-41
359	-153	-40
363	115	-58
268	366	-36
119	504	-24
-22	468	-40
-115	279	-38
-158	20	-18
-177	-204	-13
-206	-315	-21
-262	-294	-21
-332	-183	-32
-375	-55	-30
-357	29	-25
-267	53	-15
-125	43	-20
32	43	-30
160	74	-26
234	132	-33
242	185	-28
203	195	-20
133	153	-11
56	74	-18
-10	-6	-36
-53	-61	-32
-68	-87	-10
-60	-96	6
-43	-105	-14
-39	-120	-17
-53	-122	-7
-80	-88	-13
-92	-11	-15
-56	93	-24
33	179	-28
162	206	-34
280	160	-25
340	60	-15
313	-48	-21
214	-129	-37
86	-163	-34
-24	-167	-15
-90	-169	-12
-117	-192	-19
-136	-227	-14
-170	-246	-18
-221	-216	-28
-259	-127	-24
-253	1	-29
-189	127	-21
-75	209	-24
52	233	-31
154	211	-26
206	174	-24
209	156	-25
182	154	-26
138	150	-21
86	121	-22
21	53	-20
-63	-37	-23
-158	-122	-25
-240	-171	-25
-280	-176	-34
-264	-147	-41
-204	-109	-36
-125	-84	-12
-59	-75	11
-22	-58	12
-4	-4	-25
24	104	-49
91	247	-44
207	372	-53
346	422	-47
466	340	-28
506	123	0
454	-166	9
301	-430	1
95	-557	-13
-109	-492	-40
-262	-259	-36
-340	47	-35
-345	283	-29
-300	354	-20
-231	237	-27
-151	16	-33
-64	-186	-11
27	-254	10
122	-158	-8
201	38	-2
236	224	-4
206	290	-21
112	207	-12
-26	21	-16
-166	-168	-20
-269	-275	-25
-307	-274	-29
-277	-196	-31
-201	-104	-32
-108	-44	-30
-24	-24	-32
44	-13	-30
93	27	-29
128	100	-34
144	185	-31
137	236	-26
99	227	-25
36	155	-28
-37	50	-27
-100	-48	-26
-136	-121	-30
-142	-162	-27
-125	-181	-22
-94	-185	-16
-50	-171	-4
11	-127	5
97	-49	-16
203	43	-46
311	131	-39
385	183	-33
398	195	-28
342	169	-30
234	128	-26
102	86	-3
-22	43	5
-124	-3	1
-208	-58	-17
-281	-111	-25
-347	-145	-35
-392	-144	-25
-383	-111	8
-310	-64	-6
-174	-30	-42
-15	-23	-49
122	-28	-37
199	-23	-27
206	16	-7
163	88	-15
106	158	-21
64	190	-21
41	153	-26
24	57	-18
-9	-61	-21
-60	-153	-19
-121	-186	-28
-166	-167	-24
-176	-125	-25
-148	-94	-30
-93	-85	-28
-36	-83	-30
14	-58	-26
56	2	-27
104	89	-23
158	174	-24
212	221	-24
245	214	-22
236	160	-21
172	88	-22
74	25	-21
-36	-24	-18
-130	-60	-18
-193	-97	-20
-236	-133	-25
-274	-158	-27
-329	-149	-30
-392	-102	-36
-438	-23	-39
-420	60	-48
-291	122	-50
-42	153	-25
301	158	11
656	149	14
918	134	-19
995	106	-38
846	49	-12
506	-46	-28
84	-163	-32
-296	-264	-26
-530	-309	-40
-583	-268	-8
-497	-157	2
-347	-18	11
-209	88	13
-111	122	-6
-38	83	-9
42	8	-25
149	-49	-35
258	-45	-30
327	23	-37
314	119	-37
211	190	-17
48	186	-30
-118	100	-35
-249	-38	-31
-321	-168	-46
-345	-235	-48
-325	-212	-44
-262	-118	-18
-150	-10	-4
9	64	-7
183	71	-10
319	27	-14
363	-28	-10
299	-55	-1
152	-28	8
-7	36	-5
-113	103	-28
-139	132	-30
-109	110	-22
-78	51	-35
-94	-18	-39
-172	-66	-30
-271	-88	-28
-330	-82	-23
-299	-66	-27
-158	-50	-39
53	-34	-37
276	-9	-26
439	29	-25
506	76	-23
470	118	-13
350	142	-21
192	140	-27
42	116	-13
-70	76	-20
-145	30	-38
-199	-15	-15
-257	-53	-17
-333	-84	-40
-417	-101	-30
-474	-102	-30
-465	-88	-14
-366	-58	-13
-186	-25	-16
20	10	-24
195	39	-28
291	63	-18
300	88	-30
245	106	-32
172	116	-27
107	101	-13
57	50	-4
16	-35	1
-19	-135	-15
-32	-216	-16
-2	-243	-8
84	-191	-4
200	-72	0
296	74	-28
306	193	-32
216	235	-38
58	186	-51
-84	68	-62
-132	-63	-45
-59	-162	-29
90	-195	-34
221	-178	-34
240	-145	-38
120	-135	-21
-88	-164	-20
-287	-211	-16
-389	-241	-15
-366	-215	-9
-253	-125	-2
-133	7	-19
-63	144	-3
-52	244	13
-64	289	14
-42	287	7
40	268	-16
162	248	-28
266	238	-35
299	224	-59
238	179	-48
107	91	-17
-46	-37	-23
-182	-171	-22
-278	-270	-21
-337	-299	-30
-362	-248	-27
-350	-149	-28
-273	-47	-34
-129	6	-21
66	-2	7
266	-48	-2
405	-83	-25
433	-54	-23
351	45	-24
198	185	-12
41	295	-28
-69	305	-63
-121	200	-57
-145	9	-44
-179	-190	-32
-243	-316	-37
-313	-320	-18
-343	-222	-25
-278	-78	-36
-107	38	-14
131	85	9
360	71	36
498	38	6
506	38	-28
397	88	-41
222	166	-30
46	215	-34
-75	197	-37
-133	96	-26
-143	-55	-20
-141	-189	-16
-143	-256	-25
-162	-238	-21
-188	-165	-19
-208	-86	-10
-210	-42	-13
-186	-42	-21
-135	-55	-21
-62	-44	-42
20	16	-41
100	112	-36
159	206	-36
188	256	-34
192	241	-32
181	171	-23
171	80	-4
169	-4	10
162	-71	6
128	-126	-9
53	-181	-21
-63	-233	-24
-195	-263	-31
-292	-251	-42
-313	-179	-33
-237	-61	-24
-89	68	-28
82	171	-34
216	215	-31
275	208	-34
248	161	-27
162	105	-20
54	60	-28
-42	34	-26
-108	18	-12
-143	3	-5
-150	-16	-16
-134	-42	-21
-99	-70	-4
-56	-101	7
-23	-124	-23
-11	-135	-40
-27	-123	-18
-51	-81	-19
-58	-16	-26
-20	59	-24
65	122	-15
170	158	-10
244	162	-34
248	140	-51
172	110	-30
40	77	-3
-99	35	1
-202	-24	-11
-246	-101	-32
-240	-179	-57
-205	-229	-53
-165	-223	-42
-122	-160	-32
-68	-61	-17
8	25	-8
105	64	-13
203	47	-15
277	1	-1
309	-33	-22
288	-26	-19
216	25	-4
110	87	-9
-26	118	-9
-174	89	-9
-313	6	-20
-415	-96	-25
-452	-171	-34
-412	-188	-35
-300	-142	-27
-143	-54	-38
27	48	-30
187	150	-32
320	244	-35
414	321	-38
455	370	-38
433	360	-17
336	270	-16
175	95	-10
-23	-131	-25
-202	-346	-39
-321	-482	-24
-356	-495	-16
-320	-387	-24
-245	-209	-33
-158	-30	-23
-77	89	1
13	134	12
118	120	-13
234	92	-17
325	77	-23
352	84	-38
287	93	-35
142	85	-38
-31	50	-20
-172	-1	-11
-240	-41	-22
-240	-54	-40
-209	-42	-36
-195	-27	-15
-212	-33	-25
-237	-68	-29
-217	-114	-17
-119	-130	-29
49	-88	-33
241	17	-27
373	151	-9
404	259	-22
317	290	-27
160	227	-8
0	92	-24
-109	-61	-22
-150	-174	-18
-142	-209	-13
-119	-170	-11
-104	-86	-24
-96	-6	-26
-78	35	-24
-36	31	-15
28	-1	-16
96	-32	-17
147	-36	-19
167	-8	-13
167	32	-16
151	65	-8
129	71	9
84	55	-17
1	34	-33
-124	30	-47
-263	43	-61
-377	56	-56
-405	40	-47
-330	-23	-36
-174	-124	-26
7	-222	-9
151	-260	-8
223	-216	-7
229	-100	-7
212	39	-13
211	137	-22
237	154	-24
261	95	-25
242	7	-18
156	-54	-3
11	-58	-13
-143	-15	-17
-256	34	-12
-291	43	-25
-262	-7	-19
-201	-96	-20
-150	-177	-26
-123	-207	-46
-108	-163	-55
-80	-56	-27
-17	76	-21
71	193	-17
159	270	-23
216	298	-33
232	274	-9
209	215	-13
167	137	-28
115	54	-33
50	-13	-28
-34	-56	-24
-137	-79	-25
-241	-92	-18
-311	-112	-16
-319	-149	-7
-262	-190	-7
-166	-211	-27
-66	-182	-52
3	-96	-52
35	23	-38
49	134	-39
75	187	-33
121	166	-19
187	84	8
242	-6	26
260	-61	-7
223	-58	-12
137	-11	-26
25	35	-38
-92	36	-31
-191	-22	-43
-260	-118	-34
-288	-196	-32
-271	-211	-21
-202	-136	-27
-87	10	-45
56	178	-35
199	312	-14
314	370	-9
374	341	-11
383	244	-4
336	110	-7
245	-36	-22
132	-174	-19
6	-286	-12
-121	-358	-12
-229	-379	-16
-302	-345	-38
-325	-263	-46
-297	-159	-49
-229	-56	-28
-139	17	-16
-51	54	-25
17	61	-2
54	52	-13
59	50	-54
44	65	-62
33	104	-30
49	164	-10
106	228	-4
189	272	7
260	265	4
262	187	1
159	39	-11
-40	-140	-9
-269	-294	-5
-428	-358	-19
-436	-304	-34
-277	-149	-35
-16	43	-20
228	195	-2
340	256	-4
280	219	-24
101	130	-16
-93	45	-33
-195	11	-61
-167	27	-50
-47	60	-36
68	65	-28
101	16	-32
27	-85	-28
-104	-203	-32
-207	-292	-30
-216	-313	-32
-119	-257	-35
42	-133	-26
197	18	-22
285	157	-26
292	241	-26
237	252	-17
154	194	-12
69	92	-7
-3	-9	-13
-71	-80	-32
-141	-108	-9
-202	-106	-8
-246	-96	-21
-253	-96	-16
-223	-108	-30
-159	-109	-35
-77	-83	-26
13	-18	-8
98	68	-15
169	152	-12
219	201	-22
234	202	-34
211	170	-25
149	116	-30
57	60	-17
-48	4	-27
-150	-54	-31
-233	-119	-28
-285	-179	-24
-295	-212	-27
-253	-201	-48
-158	-142	-47
-25	-55	-30
115	30	-18
226	87	-4
277	104	-6
266	101	-5
211	98	-4
147	116	-13
100	143	-19
81	158	-24
74	127	-31
52	43	-37
-4	-68	-27
-93	-171	-17
-187	-216	-16
-251	-187	-12
-260	-96	-13
-213	15	-24
-133	102	-40
-56	132	-33
-8	106	-31
12	45	-31
27	-23	-16
71	-67	-16
162	-78	-19
280	-56	-8
381	-15	7
405	19	-17
311	29	-41
114	-4	-34
-130	-71	-32
-335	-156	-30
-431	-222	-28
-390	-235	-30
-251	-190	-15
-89	-102	-15
30	-6	-7
75	67	-8
65	103	-32
49	105	-38
68	106	-34
126	126	-33
188	161	-34
199	189	-24
125	179	-32
-25	117	-27
-199	9	-18
-336	-110	-17
-386	-201	-14
-337	-235	-10
-222	-205	-1
-80	-121	-22
48	-12	-39
140	97	-34
195	181	-22
211	227	-19
198	223	-14
159	174	-9
111	98	-15
65	15	-14
39	-48	-14
28	-80	-13
16	-85	-20
-22	-83	-25
-98	-100	-38
-198	-141	-38
-280	-198	-24
-290	-238	-20
-203	-226	-23
-29	-144	-22
178	-4	-18
346	158	-23
428	291	-28
403	362	-30
302	345	-18
182	268	-13
78	152	-21
1	28	-28
-52	-80	-21
-108	-163	-11
-175	-222	-20
-253	-252	-32
-321	-253	-44
-360	-219	-32
-355	-152	-30
-298	-62	-25
-189	28	-15
-32	97	-17
157	134	-4
351	143	-2
502	135	-6
560	127	-12
494	117	-32
311	94	-41
59	41	-27
-189	-51	-29
-361	-169	-30
-425	-280	-16
-389	-340	-26
-299	-322	-32
-196	-223	-43
-118	-74	-65
-66	75	-51
-27	180	-33
14	221	-21
65	208	-31
110	170	-23
136	136	-23
131	122	-34
100	119	-16
52	109	-16
7	80	-9
-34	32	-8
-67	-22	-11
-92	-64	4
-107	-88	24
-107	-94	32
-89	-94	22
-50	-98	4
1	-107	-23
54	-113	-13
100	-105	-43
123	-77	-74
124	-33	-51
100	19	-37
62	64	-27
22	100	-31
1	115	-42
5	104	-45
34	64	-51
72	2	-50
90	-66	-12
60	-117	3
-23	-121	-4
-133	-68	-10
-229	29	-31
-249	131	-31
-170	197	-12
-1	197	-12
202	131	-19
365	29	-7
425	-68	-3
358	-129	-3
194	-151	-2
-8	-139	-19
-178	-122	-32
-280	-114	-39
-308	-114	-36
-299	-113	-19
-282	-102	-27
-277	-78	-40
-266	-49	-45
-210	-23	-34
-86	-6	-20
99	11	-29
295	31	-38
425	62	-28
433	97	-13
310	124	-15
101	132	-25
-106	119	-13
-227	95	1
-223	65	-6
-116	41	-5
17	19	-14
99	-6	-22
82	-40	-19
-16	-80	-26
-135	-108	-21
-199	-112	-27
-165	-79	-32
-43	-13	-32
111	69	-34
231	144	-33
265	187	-31
210	189	-18
100	144	-25
-17	72	-24
-106	-12	-24
-157	-90	-19
-183	-148	-37
-197	-177	-40
-204	-174	-17
-194	-144	-20
-153	-103	-15
-79	-64	-16
13	-38	-22
91	-24	-30
133	-13	-36
128	18	-36
87	74	-32
36	156	-26
4	237	-14
4	278	2
37	252	0
87	147	2
132	-14	-12
151	-180	-24
132	-296	-17
78	-326	-21
-5	-270	-30
-89	-162	-42
-151	-50	-30
-168	30	-24
-133	68	-37
-54	84	-54
49	100	-66
150	132	-40
216	174	-25
231	194	-23
180	161	-20
68	60	-5
-80	-85	9
-229	-227	11
-321	-307	21
-325	-292	5
-225	-186	-8
-53	-27	-23
122	113	-55
236	182	-58
242	154	-46
158	48	-25
36	-81	-16
-45	-173	-5
-52	-188	5
4	-127	-12
59	-24	-23
47	71	-35
-58	120	-26
-228	110	-24
-372	59	-25
-412	1	-25
-312	-40	-27
-113	-53	-27
102	-45	-40
240	-32	-29
260	-19	-24
179	-5	-40
60	19	-44
-29	59	-19
-60	115	-17
-36	170	-18
12	210	-1
60	218	8
101	190	7
138	124	-14
175	25	-30
195	-89	-31
179	-203	-21
107	-287	-18
-3	-318	-16
-113	-282	-25
-169	-195	-25
-141	-79	-26
-43	26	-41
78	96	-50
162	127	-44
175	135	-28
122	137	-24
37	141	-21
-43	134	-20
-98	100	-17
-139	29	-18
-183	-60	-21
-242	-136	-27
-300	-167	-30
-332	-137	-24
-302	-72	-21
-202	-10	-12
-58	15	-9
94	-2	1
216	-30	7
290	-35	-10
314	13	-36
306	102	-37
275	189	-20
216	224	-23
135	181	-28
19	74	-35
-115	-50	-31
-248	-142	-18
-347	-177	-22
-393	-163	-26
-386	-137	-30
-325	-131	-27
-232	-160	-27
-113	-195	-25
22	-196	-25
178	-131	-30
345	7	-15
506	189	-6
625	357	2
656	458	-4
569	454	-20
366	345	-30
80	169	-33
-229	-23	-39
-480	-183	-38
-616	-275	-36
-614	-297	-29
-496	-260	-3
-312	-196	-14
-121	-133	-31
35	-80	-23
138	-36	-23
193	9	-25
212	55	-19
210	95	-11
191	109	0
155	80	5
110	8	-2
59	-84	-13
10	-158	-15
-38	-182	-24
-89	-151	-47
-148	-79	-42
-206	-5	-37
-241	40	-41
-231	50	-43
-153	45	-40
-21	53	-24
132	96	-28
257	164	-30
313	221	-26
287	238	-26
198	194	-14
86	104	-15
-15	2	-25
-86	-81	-10
-136	-130	-10
-175	-159	-24
-211	-183	-19
-240	-222	-19
-243	-256	-10
-206	-262	-16
-125	-211	-24
-17	-101	-24
93	43	-22
180	183	-14
234	277	-33
245	310	-30
231	286	-19
188	233	-30
121	168	-22
36	99	-13
-61	21	-8
-160	-71	-19
-245	-166	-32
-299	-241	-30
-311	-261	-32
-277	-216	-32
-194	-118	-38
-65	2	-33
94	98	-20
258	145	-23
389	143	-33
446	119	-37
409	98	-35
284	93	-28
111	96	-22
-68	75	-23
-214	11	-17
-319	-96	-15
-393	-210	-14
-463	-286	-9
-518	-286	-7
-518	-205	-4
-417	-83	-6
-175	28	-20
180	84	-22
562	74	-28
846	27	-23
930	-11	-25
794	-1	-33
489	54	-36
148	127	-41
-111	168	-27
-221	143	-19
-199	56	-19
-130	-64	-39
-103	-173	-31
-170	-233	-2
-306	-237	-10
-443	-196	-10
-496	-130	-4
-421	-56	-2
-228	26	-3
24	123	-41
252	224	-56
389	312	-42
406	350	-34
317	316	-24
161	202	-14
-7	39	-2
-151	-121	-18
-253	-230	-39
-321	-254	-43
-375	-202	-35
-415	-107	-31
-431	-19	-27
-389	28	-20
-262	30	-13
-37	2	-11
252	-21	-8
539	-20	-11
743	11	-31
807	55	-18
713	85	-10
501	85	-2
241	51	-2
-1	6	-28
-179	-31	-26
-291	-48	-36
-352	-50	-40
-385	-54	-19
-393	-78	-22
-380	-122	-34
-325	-165	-34
-236	-177	-29
-121	-129	-25
-5	-24	-21
89	110	-23
151	222	-14
181	262	-19
188	225	-19
179	123	-2
156	13	-7
118	-64	-17
65	-93	-15
2	-85	-27
-66	-79	-28
-130	-100	-38
-183	-152	-45
-218	-202	-32
-229	-212	-32
-202	-156	-32
-132	-37	-27
-21	105	-19
111	228	-23
234	294	-29
306	296	-25
311	248	-25
245	174	-21
138	96	-23
31	16	-27
-52	-57	-25
-101	-122	-12
-131	-165	2
-166	-178	-1
-212	-156	-21
-255	-110	-19
-262	-59	-24
-213	-19	-42
-93	4	-18
69	20	-6
231	35	-13
342	55	-21
373	76	-18
332	78	-15
234	52	-18
116	0	-14
0	-61	-24
-102	-113	-23
-194	-140	-20
-272	-139	-18
-329	-121	-16
-344	-95	-31
-300	-68	-51
-198	-36	-48
-50	3	-25
107	52	-19
245	102	-19
333	138	-48
358	151	-48
329	139	-18
260	115	-8
167	82	-6
62	43	-25
-43	-8	-30
-149	-78	-33
-245	-157	-17
-324	-222	-7
-378	-248	-19
-394	-216	-18
-366	-128	-12
-277	-11	-23
-125	104	-39
85	196	-26
317	253	-5
516	275	-25
623	261	-38
592	210	-23
425	112	-13
171	-24	-12
-93	-164	-18
-288	-263	-33
-373	-283	-37
-360	-227	-21
-300	-125	-36
-248	-35	-41
-232	5	-36
-240	-1	-48
-224	-11	-30
-145	23	-15
7	117	-5
200	235	-6
373	312	-5
465	291	-5
438	169	-6
302	-5	-14
99	-153	-29
-111	-219	-15
-272	-199	-11
-344	-140	-14
-317	-109	-19
-207	-130	-17
-60	-192	-17
71	-238	-17
151	-222	-18
162	-124	-20
121	14	-24
68	135	-38
42	200	-30
60	198	-34
99	160	-33
123	113	-23
96	79	-27
12	48	-25
-103	6	-26
-202	-50	-19
-252	-103	-17
-243	-119	-21
-202	-83	-19
-164	-6	-16
-143	71	-26
-130	109	-26
-89	95	-17
7	48	-22
159	14	-45
325	28	-48
444	89	-22
468	160	-26
385	183	-27
228	132	-20
51	10	-16
-91	-141	-17
-182	-263	-40
-237	-322	-38
-285	-305	-24
-342	-243	-32
-392	-160	-23
-392	-80	-18
-305	-4	-21
-111	70	-2
159	142	-3
431	205	-6
614	241	-23
646	241	-35
506	195	-20
252	123	-36
-34	39	-24
-263	-36	-22
-380	-93	-35
-385	-121	-17
-320	-126	-9
-252	-109	-18
-221	-85	-26
-226	-64	-34
-241	-59	-38
-223	-70	-34
-149	-88	-36
-28	-88	-25
107	-50	-20
218	30	-19
283	137	8
296	237	21
270	289	26
216	272	11
143	183	-21
40	44	-24
-80	-102	-23
-191	-219	-40
-259	-282	-36
-243	-282	-17
-136	-228	-26
33	-138	-46
209	-44	-48
327	32	-37
346	71	-28
283	70	-23
164	42	-28
41	9	-27
-50	-12	-20
-109	-16	-30
-150	-14	-28
-193	-27	-24
-239	-62	-16
-267	-116	-4
-253	-154	0
-180	-140	-1
-64	-59	-24
54	74	-40
132	213	-23
148	305	-14
103	317	-19
39	252	-21
-3	145	-36
0	38	-28
36	-41	-23
75	-94	-25
75	-126	-34
20	-149	-44
-79	-151	-25
-178	-116	-21
-235	-41	-24
-222	55	-27
-137	130	-22
-19	142	-20
95	80	-22
170	-25	-23
197	-108	-10
192	-120	-8
179	-48	-32
179	65	-24
188	153	-17
186	160	-19
147	79	-23
58	-46	-16
-65	-154	-15
-189	-198	-31
-273	-179	-26
-296	-130	-19
-259	-95	-24
-195	-85	-31
-136	-85	-31
-101	-59	-45
-83	15	-30
-56	127	-6
2	241	-19
93	313	-21
191	323	-21
258	274	-20
262	190	-22
198	91	-18
89	-27	-7
-22	-163	-7
-98	-317	-15
-120	-457	-34
-99	-541	-38
-55	-534	-27
-14	-427	-24
8	-254	-14
14	-72	-11
11	70	-26
16	161	-38
37	206	-38
81	239	-33
138	274	-20
197	312	1
234	329	3
216	300	-7
139	225	-3
0	112	-3
-165	-16	-21
-310	-130	-19
-383	-217	-37
-369	-254	-55
-282	-230	-46
-172	-134	-52
-79	17	-36
-24	187	-16
3	325	-13
36	385	-17
96	356	-36
175	262	-34
234	157	-14
231	65	-25
151	-14	-32
24	-104	-18
-90	-237	-19
-137	-394	-18
-108	-533	-24
-38	-562	-30
8	-443	-25
-10	-205	-11
-87	59	-28
-165	237	-23
-174	262	-22
-82	158	-45
85	15	-27
253	-64	-18
342	-31	-6
310	84	-3
172	189	-12
-2	200	-13
-156	96	-24
-247	-66	-29
-277	-192	-18
-269	-218	-16
-243	-139	-24
-197	-21	-25
-116	64	-18
4	75	-10
147	33	-14
270	-4	-22
337	11	-21
324	80	-28
242	157	-34
131	185	-30
29	137	-22
-43	35	-24
-93	-68	-30
-133	-123	-30
-176	-119	-26
-215	-85	-16
-236	-64	-22
-222	-84	-33
-165	-122	-31
-81	-143	-22
19	-112	-24
115	-24	-32
201	87	-29
265	179	-31
299	219	-31
280	215	-16
194	189	-12
44	161	-18
-147	129	-3
-321	70	-1
-426	-33	-28
-424	-173	-27
-310	-296	-25
-118	-345	-38
90	-281	-29
255	-125	-18
336	47	-16
326	158	-14
248	155	-9
143	63	-8
57	-45	-6
14	-94	-6
22	-46	-15
58	59	-32
91	149	-28
91	149	-32
40	47	-36
-46	-106	-25
-144	-221	-26
-221	-233	-40
-248	-147	-43
-222	-17	-39
-160	72	-38
-85	80	-25
-21	15	-28
24	-50	-18
54	-50	-6
82	35	-3
107	170	1
121	278	-27
117	294	-30
80	204	-16
14	57	-27
-61	-75	-40
-124	-137	-40
-158	-123	-37
-161	-76	-20
-143	-45	-16
-116	-66	-19
-85	-124	-7
-36	-176	-14
35	-176	-12
131	-109	-13
229	0	-21
291	103	-22
288	158	-30
207	148	-19
71	89	-15
-84	12	-26
-223	-50	-22
-324	-88	-19
-389	-105	-26
-415	-111	-38
-389	-108	-52
-294	-90	-64
-107	-45	-50
154	24	-32
425	95	-16
623	138	6
662	135	-5
529	96	-9
279	51	21
18	45	-5
-149	103	-42
-177	197	-44
-108	270	-36
-26	256	-14
-20	122	-8
-119	-101	-16
-280	-326	-7
-410	-452	-11
-431	-423	-32
-318	-257	-26
-118	-48	-30
79	98	-36
200	112	-32
212	10	-23
148	-126	-6
60	-203	-18
7	-164	-19
4	-30	-15
32	124	-21
56	221	-15
48	215	-16
4	136	-11
-62	34	-25
-122	-39	-43
-152	-74	-47
-136	-87	-36
-75	-102	-26
28	-119	-13
156	-103	5
280	-24	-15
373	120	-19
398	279	-16
342	372	-10
216	340	-10
56	174	-32
-96	-50	-39
-209	-233	-38
-284	-289	-32
-337	-208	-33
-392	-52	-28
-455	80	-26
-489	110	-27
-452	30	-36
-299	-105	-40
-38	-206	-20
269	-206	-24
531	-96	-27
656	77	-5
614	233	3
436	307	-11
206	279	-18
13	170	-22
-85	28	-17
-93	-100	-13
-58	-189	-19
-47	-232	-21
-88	-233	-10
-172	-207	-11
-252	-160	-23
-277	-97	-20
-231	-29	-26
-124	30	-34
-6	67	-46
77	80	-51
98	70	-46
62	57	-44
-2	57	-40
-60	78	-40
-89	106	-18
-85	126	-10
-54	110	-18
-12	48	-5
30	-48	5
63	-159	-5
91	-242	-19
109	-273	-18
122	-242	-14
130	-160	-31
133	-51	-36
139	52	-18
143	132	-10
143	187	-8
131	215	-11
101	219	-2
48	203	-10
-21	154	-33
-98	72	-27
-170	-36	-28
-227	-142	-31
-262	-218	-31
-271	-238	-51
-253	-200	-50
-210	-127	-27
-148	-57	-23
-72	-17	-18
-1	-7	-8
55	-6	-30
89	19	-55
99	90	-43
96	195	-22
84	295	-5
69	334	5
51	279	4
26	137	7
-6	-50	4
-42	-222	-15
-70	-320	-44
-83	-319	-47
-70	-230	-16
-36	-84	-24
22	77	-24
90	210	-36
156	286	-57
199	286	-45
202	210	-23
156	74	-3
67	-78	3
-28	-192	7
-94	-227	-1
-102	-175	-11
-60	-77	-17
-10	4	-26
-11	12	-42
-95	-60	-42
-245	-166	-35
-387	-229	-34
-426	-190	-28
-311	-51	-23
-55	121	-8
245	239	-13
470	236	-35
529	120	-36
417	-37	-30
211	-148	-34
24	-158	-10
-65	-79	1
-50	16	-5
14	56	-10
46	9	-30
3	-95	-17
-103	-187	-18
-208	-210	-22
-247	-151	-18
-195	-46	-31
-83	47	-28
29	96	-28
95	110	-35
104	122	-40
87	162	-43
87	223	-26
121	262	-5
160	240	-14
157	135	-11
71	-14	-11
-88	-151	-23
-262	-221	-25
-380	-209	-25
-378	-149	-19
-259	-87	-19
-69	-58	-16
110	-56	-25
221	-49	-21
239	-7	-27
196	76	-46
137	166	-32
104	215	-26
101	194	-22
103	103	-19
75	-17	-19
-1	-115	-11
-113	-159	-20
-231	-149	-13
-314	-107	-2
-345	-68	-21
-325	-50	-34
-272	-49	-36
-191	-47	-47
-80	-20	-60
68	36	-37
251	114	4
439	189	12
579	235	16
614	233	-9
517	177	-39
306	83	-39
42	-27	-34
-188	-114	-23
-325	-155	4
-352	-141	13
-300	-90	-30
-231	-34	-55
-191	-4	-62
-199	-11	-42
-235	-44	-30
-250	-80	-32
-202	-89	-23
-82	-63	-38
90	-19	-30
261	22	-15
373	33	-11
393	13	-25
314	-30	-21
172	-75	-13
15	-106	-13
-109	-118	-5
-182	-114	-4
-204	-103	0
-201	-85	-25
-193	-58	-32
-183	-21	-20
-154	26	-23
-86	70	-22
22	105	-41
148	122	-35
245	123	-34
274	117	-35
216	109	-25
93	97	-31
-50	71	-16
-169	28	-11
-235	-33	-13
-245	-101	-23
-212	-157	-47
-152	-186	-25
-67	-183	-4
32	-157	-20
132	-107	-15
203	-38	0
216	58	-9
164	188	-30
75	335	-35
-3	457	-35
-25	492	-43
17	398	-37
82	178	-24
110	-107	-35
48	-355	-28
-95	-473	0
-259	-425	8
-354	-257	-15
-313	-68	-26
-140	34	-9
102	8	1
314	-107	0
423	-215	-4
401	-222	-24
286	-93	-36
137	117	-24
8	305	-30
-89	373	-36
-165	301	-41
-232	134	-27
-285	-40	-22
-297	-149	-20
-240	-176	-15
-108	-166	-15
63	-168	0
216	-209	9
297	-259	-12
279	-263	-37
184	-178	-46
66	-14	-48
-21	166	-25
-46	282	-37
-14	286	-56
44	194	-44
90	72	-30
93	0	-5
42	19	-16
-55	109	-18
-184	205	-17
-312	235	-19
-415	165	-16
-452	16	-25
-407	-145	-35
-271	-248	-52
-70	-249	-33
141	-153	-16
312	-11	-27
392	120	-25
369	194	-36
267	197	-31
132	143	-25
15	64	-39
-57	-11	-30
-85	-64	-18
-84	-92	-14
-86	-101	-5
-113	-98	-13
-172	-89	-10
-245	-79	3
-303	-64	-4
-304	-51	-8
-216	-36	-9
-33	-21	-16
216	-5	-26
472	12	-25
649	31	-16
688	51	-17
561	59	-11
314	48	-17
26	9	-35
-206	-59	-37
-325	-147	-26
-335	-228	-21
-277	-274	-29
-218	-263	-36
-199	-189	-30
-221	-68	-28
-242	64	-35
-223	171	-31
-144	230	-24
-41	233	-24
38	189	-31
44	125	-32
-22	62	-30
-116	15	-32
-160	-14	-21
-94	-19	18
86	6	19
320	51	-6
504	104	-11
552	133	-35
425	110	-15
178	22	-15
-93	-111	-21
-274	-235	-13
-299	-295	-40
-175	-249	-40
23	-112	-41
194	60	-27
260	201	-25
196	251	-40
39	206	-28
-142	104	-15
-279	4	-9
-338	-47	-23
-321	-37	-36
-246	11	-36
-143	48	-19
-30	43	-15
81	-20	-25
176	-122	-14
240	-230	-23
250	-296	-25
201	-282	-18
111	-186	-12
20	-21	-4
-32	157	-29
-24	284	-43
28	313	-32
84	228	-35
87	58	-31
22	-124	-14
-100	-245	-16
-231	-263	-11
-312	-194	-17
-316	-82	-20
-245	6	-27
-133	40	-33
-23	29	-28
55	14	-27
104	35	-17
131	106	-23
157	199	-16
181	261	-13
186	254	-15
162	163	-14
94	19	-30
-3	-128	-23
-108	-233	-5
-191	-273	-10
-240	-257	-24
-247	-204	-30
-224	-136	-27
-181	-59	-39
-123	26	-47
-58	122	-38
10	215	-30
68	289	-34
113	321	-40
132	299	-21
136	233	-4
140	138	10
159	45	-1
192	-31	-13
214	-83	-6
198	-117	-13
115	-147	-20
-24	-185	-23
-179	-234	-18
-281	-279	-20
-279	-305	-13
-161	-289	-19
32	-225	-24
223	-114	-14
339	16	-16
344	131	-19
254	205	-15
121	215	-15
-4	174	-27
-99	106	-31
-168	35	-46
-232	-11	-53
-299	-31	-56
-346	-38	-52
-337	-49	-32
-240	-69	-21
-68	-90	-19
127	-94	-23
279	-64	-15
339	-2	-5
300	70	-11
202	120	-26
101	123	-33
33	71	-35
1	-15	-25
-27	-96	-9
-77	-141	-3
-154	-134	-3
-229	-89	-7
-267	-28	-7
-243	19	-19
-167	37	-16
-80	35	-24
-17	31	-45
-2	38	-42
-23	59	-35
-46	89	-21
-41	113	-9
0	129	-12
65	143	-35
132	165	-45
183	197	-47
215	221	-27
232	204	5
230	125	-12
198	-20	-35
124	-199	-35
5	-352	-35
-130	-422	-8
-239	-384	-9
-273	-256	-15
-216	-92	-13
-91	45	-18
56	122	-16
165	131	-37
205	108	-22
181	80	-30
123	62	-42
62	51	-40
11	31	-41
-42	2	-23
-112	-24	-12
-202	-25	1
-295	1	-17
-353	37	-34
-353	39	-25
-289	-24	-14
-182	-143	-16
-60	-278	-16
57	-351	-18
159	-312	-30
245	-165	-32
310	34	-42
331	200	-35
289	269	-28
183	236	-23
38	140	-11
-85	50	-17
-135	8	-15
-93	18	-12
15	41	-10
121	44	-5
170	8	-2
132	-47	-12
44	-86	-20
-37	-78	-22
-57	-23	-38
0	50	-50
99	114	-50
181	142	-38
196	138	-16
129	110	-13
2	75	-30
-142	30	-25
-267	-24	-16
-353	-86	-18
-393	-141	-23
-399	-176	-23
-355	-179	-13
-269	-157	-25
-148	-127	-36
-14	-108	-21
99	-90	-19
169	-54	-18
202	28	-21
216	155	-27
245	294	-19
294	382	-25
342	366	-26
346	241	-29
270	36	-35
116	-166	-32
-84	-304	-17
-262	-344	-9
-364	-309	-10
-373	-246	-11
-311	-194	-12
-224	-157	-13
-142	-108	-13
-71	-11	-33
12	140	-36
132	316	-34
283	445	-39
417	477	-24
469	385	-20
395	194	-17
203	-31	-13
-42	-218	-16
-255	-322	-9
-366	-337	-11
-366	-286	-27
-299	-210	-33
-224	-147	-32
-185	-113	-40
-179	-107	-27
-161	-110	-16
-80	-94	-15
78	-38	-11
275	62	-22
436	192	-27
488	308	-8
402	362	-4
211	324	-21
-15	191	-34
-195	6	-33
-286	-166	-26
-296	-261	-34
-256	-258	-17
-208	-176	7
-170	-70	-21
-135	8	-32
-83	35	-42
-2	29	-51
87	28	-43
154	62	-46
162	127	-32
113	190	-15
34	205	-17
-26	157	-20
-40	55	-14
-14	-52	-19
15	-131	-9
0	-164	-17
-80	-173	-29
-189	-185	-3
-258	-215	-14
-223	-238	-16
-66	-204	-5
158	-86	-2
355	108	-2
436	309	-25
375	429	-32
229	406	-32
90	244	-25
40	23	-27
94	-156	-25
186	-214	-7
216	-153	-4
118	-43	-24
-96	20	-48
-340	-26	-53
-501	-168	-47
-507	-331	-27
-373	-418	-13
-177	-373	-26
-8	-210	-18
81	5	-1
107	186	-8
122	287	-30
169	312	-43
234	291	-27
263	265	-19
210	238	-17
59	196	-20
-130	116	-20
-281	2	-20
-321	-118	-25
-247	-202	-23
-111	-226	-17
6	-190	-16
57	-127	-25
41	-70	-24
10	-34	-22
13	-3	-27
64	45	-30
141	117	-21
195	193	-19
188	229	-24
123	192	-19
29	84	-18
-55	-60	-25
-122	-186	-23
-185	-245	-22
-264	-229	-33
-358	-162	-37
-433	-89	-23
-428	-32	-16
-308	6	-35
-80	52	-39
193	120	-44
421	203	-39
539	267	-28
529	267	-10
425	187	-21
291	40	-32
178	-117	12
97	-228	11
31	-257	4
-45	-218	3
-136	-160	3
-214	-125	5
-244	-137	-3
-200	-170	-21
-101	-178	-38
13	-123	-49
92	-3	-66
110	140	-52
81	251	-39
36	277	-18
15	225	-33
24	126	-28
42	43	-20
40	6	-41
-8	12	-26
-95	25	-46
-190	3	-42
-262	-69	-27
-291	-168	-24
-288	-236	-22
-267	-226	-17
-241	-122	-2
-201	39	-14
-123	194	-31
16	285	0
211	279	41
421	203	4
580	100	-44
632	24	-23
545	2	-5
339	21	-28
68	39	-15
-199	12	-16
-410	-75	-21
-535	-202	-22
-577	-317	-40
-550	-361	-38
-463	-307	-51
-319	-169	-53
-116	-3	-55
131	123	-37
387	169	-18
591	128	-28
685	47	-16
634	-13	8
452	-9	13
192	66	5
-64	174	-10
-253	252	-21
-336	243	-15
-325	130	-1
-263	-55	-13
-191	-250	-25
-132	-389	-25
-84	-417	-36
-31	-329	-40
35	-154	-44
107	47	-35
166	214	-23
184	309	-32
156	313	-27
94	253	-23
27	155	-24
-20	53	-30
-40	-32	-30
-44	-94	-21
-57	-131	-33
-92	-147	-27
-147	-137	-12
-201	-105	-13
-233	-56	-12
-217	0	-16
-152	45	-24
-50	74	-31
65	83	-33
167	82	-23
238	81	-20
262	82	-15
242	79	-15
178	53	-11
85	9	-11
-19	-52	-15
-113	-104	-11
-178	-124	-17
-202	-105	-29
-185	-57	-41
-141	-15	-31
-93	-3	-32
-62	-30	-44
-61	-72	-47
-76	-88	-22
-83	-34	-8
-47	92	-39
44	253	-47
178	380	-31
314	396	-21
383	265	-18
344	11	-17
190	-289	-11
-34	-530	-9
-247	-627	4
-366	-550	21
-353	-339	-5
-217	-80	-28
-25	137	-34
148	252	-35
238	264	-26
228	206	-29
140	138	-32
28	93	-17
-56	74	-11
-83	58	-16
-43	24	-20
38	-36	-14
127	-105	-6
175	-148	-14
161	-140	-39
66	-81	-48
-82	7	-38
-239	88	-34
-345	130	-11
-355	123	-4
-262	85	-32
-98	44	-24
81	34	-28
211	63	-43
261	119	-34
231	168	-52
152	174	-38
54	116	4
-34	6	8
-109	-117	-9
-168	-208	-19
-209	-233	-16
-218	-192	-7
-183	-125	-7
-106	-70	-32
-2	-61	-21
93	-89	-12
154	-118	-23
169	-99	-25
151	-11	-41
130	131	-33
125	274	-24
135	350	-22
142	319	-16
122	186	-19
61	1	-22
-29	-171	-28
-123	-272	-32
-189	-281	-20
-215	-222	-14
-207	-135	-22
-182	-70	-27
-150	-48	-22
-111	-58	-33
-59	-66	-53
14	-33	-36
100	55	-23
175	183	-21
210	301	-8
187	350	-10
110	295	-23
14	135	-31
-70	-77	-15
-115	-273	-14
-117	-388	-14
-104	-391	-1
-100	-298	-14
-129	-151	-36
-185	-5	-44
-237	106	-43
-243	169	-42
-170	190	-33
-15	185	-25
189	170	-12
380	151	1
498	136	-1
506	132	-11
421	137	-25
266	139	-11
104	112	0
-32	36	4
-125	-90	-18
-182	-237	-32
-218	-351	-2
-231	-384	-17
-209	-313	-25
-138	-169	-6
-25	-12	-24
96	96	-40
179	124	-49
184	98	-63
116	67	-72
8	80	-83
-84	128	-78
-121	174	-34
-110	158	-7
-86	48	-21
-90	-119	-5
-138	-268	10
-198	-313	8
-221	-227	30
-164	-52	22
-37	110	-8
107	169	-14
196	101	-30
183	-40	-35
72	-148	-34
-81	-140	-53
-197	-5	-39
-221	183	-23
-134	316	-6
25	316	3
196	179	-18
320	-17	-34
353	-174	-26
288	-225	-15
141	-175	-20
-39	-88	-20
-206	-35	-28
-300	-47	-45
-291	-91	-41
-182	-108	-15
-7	-52	-6
166	64	-18
279	185	-16
297	238	-32
226	183	-24
104	51	-14
-22	-86	-34
-122	-154	-35
-189	-121	-35
-229	-19	-30
-259	83	-26
-271	115	-19
-256	58	-22
-203	-53	-20
-111	-149	-13
-1	-166	-24
101	-94	-12
170	35	-24
203	147	-24
204	190	-7
184	145	-23
153	48	-25
106	-47	-33
40	-93	-30
-38	-79	-19
-118	-32	-19
-177	3	-11
-202	-6	-10
-198	-57	-21
-174	-123	-34
-145	-158	-34
-116	-134	-30
-79	-59	-30
-13	41	-32
83	131	-28
194	191	-25
284	212	-34
312	210	-34
258	191	-32
131	150	-26
-21	82	-20
-149	-19	-16
-212	-131	-17
-207	-224	-10
-156	-263	-5
-89	-244	-17
-23	-186	-13
53	-121	-1
159	-76	-13
300	-44	-20
439	-4	-30
523	68	-51
486	168	-37
314	248	-20
43	259	-11
-226	165	-10
-393	-9	-35
-415	-196	-38
-303	-309	-21
-144	-304	-8
-32	-198	2
-18	-59	-4
-86	37	-18
-169	56	-15
-193	20	-4
-133	-9	-8
-15	17	-36
103	99	-40
167	190	-16
163	224	-16
113	169	-8
51	44	-20
-1	-80	-58
-51	-142	-67
-120	-130	-76
-213	-79	-57
-308	-56	-28
-357	-100	-24
-325	-196	-14
-207	-275	-16
-40	-261	-16
113	-126	-13
206	92	-22
229	301	-20
207	414	-32
186	398	-35
192	286	-18
210	155	-16
206	63	-6
144	29	-3
19	18	0
-130	-13	-13
-258	-79	-36
-307	-147	-24
-263	-166	-24
-158	-108	-13
-24	6	-23
89	105	-33
160	124	-16
184	46	-19
175	-76	-23
147	-153	-25
111	-122	-19
81	13	-10
55	168	-11
36	239	-16
21	166	-18
-4	-23	-20
-48	-233	-18
-114	-354	-22
-195	-334	-23
-272	-210	-30
-314	-66	-49
-299	9	-39
-215	-5	-10
-75	-62	0
107	-92	-28
292	-45	-32
446	62	-17
532	168	-27
523	204	-27
417	149	-28
242	36	-8
41	-64	-8
-133	-103	-19
-247	-78	-28
-296	-32	-56
-299	-25	-50
-289	-80	-39
-285	-167	-27
-280	-225	-4
-247	-191	-2
-161	-52	7
-28	149	4
118	335	-12
216	434	-7
236	413	-21
163	299	-42
42	153	-38
-63	34	-36
-109	-25	-39
-87	-36	-32
-32	-36	-30
3	-59	-26
-17	-123	-24
-83	-206	-37
-152	-270	-38
-167	-278	-19
-100	-223	2
40	-117	-2
202	-1	-7
326	97	-21
368	165	-19
321	203	-11
212	227	-20
86	228	-10
-20	192	-17
-91	96	-23
-128	-61	-25
-156	-251	-35
-182	-413	-31
-214	-482	-32
-240	-427	-26
-235	-265	-26
-185	-63	-24
-89	109	-34
38	201	-50
161	210	-45
244	171	-39
266	129	-20
229	117	-6
156	137	-20
82	170	-23
22	191	-10
-18	183	-6
-60	147	-16
-119	80	4
-195	-11	4
-262	-115	-10
-290	-213	-7
-253	-277	-35
-156	-277	-44
-32	-201	-46
77	-67	-50
138	81	-37
154	196	-35
148	247	-33
150	237	-25
171	183	-9
195	121	-2
183	58	-9
104	-6	-9
-40	-86	-16
-210	-179	-20
-344	-268	-18
-392	-322	-1
-343	-312	-4
-224	-234	-33
-87	-103	-30
23	49	-22
89	187	-33
128	283	-47
169	322	-39
234	294	-12
310	201	2
366	64	-25
368	-81	-53
291	-190	-54
154	-235	-52
-14	-215	-20
-165	-161	-31
-268	-116	-49
-311	-106	-38
-299	-129	-34
-242	-142	0
-153	-109	5
-44	-11	-10
69	120	-13
159	228	-16
199	261	-24
175	215	-13
91	129	-15
-21	63	-28
-116	57	-17
-162	102	-9
-148	141	-12
-99	117	-38
-47	5	-60
-30	-163	-63
-53	-311	-30
-97	-363	-1
-125	-291	21
-101	-129	20
-17	53	21
104	183	26
212	227	-3
261	194	-16
219	130	-32
104	77	-28
-34	47	-41
-126	35	-57
-115	11	-33
4	-37	-21
183	-111	-26
331	-191	-28
363	-251	-24
240	-277	-32
6	-258	-42
-237	-200	-43
-385	-110	-42
-366	0	-28
-201	113	-27
24	218	-19
204	289	10
263	310	-9
198	265	-21
60	155	-13
-77	-2	-41
-172	-171	-48
-226	-300	-41
-262	-341	-47
-303	-268	-47
-333	-99	-26
-319	106	-8
-234	271	14
-90	335	47
68	286	49
180	168	3
223	62	-43
215	29	-48
214	81	-52
255	162	-54
331	188	-47
378	102	-44
326	-89	-23
148	-307	-16
-116	-453	-27
-358	-460	-7
-480	-334	-7
-423	-149	-25
-236	11	-23
-15	88	-34
135	95	-52
167	80	-47
101	94	-22
8	150	-14
-49	204	-8
-46	205	-7
2	129	-8
51	-1	0
82	-121	7
91	-173	1
91	-138	-13
85	-59	-33
58	6	-24
-12	16	-18
-133	-17	-28
-264	-51	-42
-344	-36	-49
-305	33	-42
-129	116	-35
129	153	-19
373	106	-20
508	4	-23
493	-92	-27
337	-106	-40
122	-24	-34
-63	100	-25
-170	170	-19
-197	110	-16
-180	-71	-11
-164	-300	-25
-167	-449	-28
-178	-437	-11
-169	-270	5
-121	-29	0
-46	169	-23
20	252	-47
34	224	-43
-23	153	-13
-131	113	-11
-231	137	-35
-249	195	-26
-143	219	-2
72	169	8
326	51	9
506	-72	-6
524	-149	-25
358	-154	-20
77	-127	-19
-191	-125	-46
-325	-173	-40
-259	-246	-42
-34	-270	-58
226	-180	-58
383	24	-52
355	276	-46
162	465	-46
-107	502	-24
-328	372	-15
-426	143	-2
-398	-89	8
-303	-243	3
-209	-289	4
-150	-261	-18
-113	-205	-28
-55	-159	-30
42	-121	-20
163	-76	-13
256	-11	-21
281	68	-26
234	132	-18
143	157	-19
65	137	-24
26	95	-18
16	53	-30
-3	35	-28
-61	31	-14
-150	23	-3
-222	-5	-12
-224	-57	-16
-140	-122	-12
-8	-175	-28
105	-201	-42
141	-189	-34
98	-145	-30
20	-76	-37
-21	2	-32
22	76	-33
131	126	-11
242	140	4
280	121	-3
210	77	-9
51	31	-17
-133	0	-17
-281	-14	-36
-360	-25	-27
-375	-50	-24
-352	-91	-31
-301	-128	-29
-222	-125	-55
-94	-59	-51
77	65	-22
254	206	-16
387	301	-11
428	313	-13
374	233	-7
269	106	-2
170	-4	-18
110	-52	-28
89	-38	-34
54	-1	-30
-42	6	-25
-212	-53	-20
-418	-163	-13
-572	-275	-26
-598	-326	-32
-455	-289	-25
-180	-166	-33
138	-5	-39
398	135	-38
517	221	-21
470	232	-14
299	189	-20
76	119	-2
-107	48	0
-184	-11	-16
-140	-59	-7
-15	-101	-2
119	-141	-7
184	-185	-18
139	-232	-27
5	-274	-17
-144	-301	-4
-226	-292	-1
-177	-230	-39
-17	-103	-59
175	78	-50
309	275	-48
312	435	-38
189	505	-39
10	458	-29
-130	301	-38
-180	89	-47
-141	-109	-39
-82	-233	-39
-66	-251	-12
-128	-178	-2
-239	-63	-14
-325	40	-26
-336	99	-12
-250	115	0
-103	110	-15
46	118	-20
151	141	-6
204	164	-18
225	156	-38
234	95	-31
236	-6	-25
203	-113	-20
115	-179	-12
-28	-179	-2
-185	-125	-17
-296	-59	-35
-313	-34	-34
-236	-71	-13
-104	-163	-4
24	-257	-22
105	-304	-31
140	-270	-36
160	-160	-30
194	-11	-20
245	124	-11
285	208	-23
273	225	-23
184	182	-12
40	106	-14
-109	29	-25
-213	-34	-28
-253	-78	-23
-248	-108	-28
-245	-131	-28
-269	-150	-28
-311	-154	-26
-321	-126	-30
-243	-55	-16
-54	62	-12
207	206	-21
457	340	-5
599	416	-6
575	403	-20
407	299	-34
162	131	-40
-63	-48	-19
-204	-190	0
-244	-263	-4
-222	-263	-30
-194	-222	-30
-199	-163	-19
-232	-118	-23
-259	-87	-16
-241	-63	-9
-164	-32	-25
-52	15	-64
59	68	-70
144	124	-51
204	168	-31
260	198	-14
328	209	-25
395	197	-8
414	147	-9
334	47	-3
137	-92	17
-128	-241	-34
-371	-344	-63
-491	-349	-60
-442	-241	-35
-256	-52	-6
-29	136	-10
133	247	-21
176	233	-11
118	121	1
28	-14	-9
-24	-86	1
-19	-52	-19
13	50	-29
6	141	-21
-75	134	-27
-212	5	-33
-339	-200	-41
-380	-379	-18
-294	-444	-15
-104	-364	-17
119	-187	-6
302	0	-24
409	128	-34
432	178	-37
401	181	-48
345	187	-57
266	215	-30
161	243	0
26	215	-8
-115	110	-6
-227	-53	-17
-273	-200	-35
-253	-261	-41
-191	-206	-30
-134	-71	-2
-117	56	-6
-136	105	-19
-160	52	-18
-144	-47	-13
-68	-120	-14
51	-102	-14
172	6	-13
244	139	-16
245	225	-18
190	213	-27
107	122	-20
29	13	-37
-29	-48	-39
-85	-40	-32
-148	9	-41
-226	39	-26
-303	4	-18
-345	-93	-20
-325	-195	-14
-227	-232	-20
-69	-160	-27
110	-1	-12
269	171	-23
379	275	-35
416	261	-31
380	150	-23
284	4	-15
150	-103	-19
7	-133	-19
-113	-100	-7
-183	-58	-18
-194	-55	-40
-156	-107	-43
-94	-180	-41
-44	-222	-23
-24	-196	-21
-33	-110	-23
-53	-2	-16
-64	83	-15
-49	120	-4
-16	129	-13
24	144	-22
56	189	-16
78	252	-11
93	290	-30
98	262	-32
84	155	-21
31	-4	-13
-69	-157	-28
-204	-253	-34
-325	-268	-26
-380	-228	-34
-325	-167	-21
-170	-113	-10
26	-71	-19
193	-28	-52
273	30	-52
266	96	-23
216	138	-22
193	127	-33
228	50	-27
306	-66	-16
363	-179	11
339	-243	21
207	-237	0
2	-176	12
-202	-95	22
-329	-28	1
-350	8	-25
-281	22	-34
-180	28	-48
-95	44	-53
-45	74	-54
-20	110	-59
5	144	-51
37	168	-44
64	177	-34
67	170	-23
32	147	-14
-23	101	-21
-75	35	-18
-93	-43	-12
-80	-118	-1
-54	-168	0
-40	-181	0
-48	-145	-12
-62	-75	-35
-60	19	-47
-26	112	-45
28	190	-19
74	237	-18
81	249	-35
48	227	-44
8	171	-38
0	89	-41
50	-14	-29
132	-127	-23
199	-235	-21
187	-322	-15
75	-362	-20
-109	-351	-17
-295	-278	-16
-407	-166	-8
-410	-40	3
-316	66	-7
-174	129	-23
-32	145	-22
79	126	-14
169	97	-9
254	78	-9
343	80	-19
416	91	-23
430	92	-30
355	61	-33
195	-9	-19
-2	-103	-23
-168	-187	-39
-239	-218	-38
-197	-170	-25
-77	-46	-10
59	113	-15
145	239	-30
151	270	-33
79	182	-35
-31	5	-37
-138	-189	-35
-209	-314	-30
-239	-315	-28
-231	-200	-1
-198	-27	12
-154	118	10
-108	174	-2
-72	135	-38
-58	38	-48
-74	-45	-56
-105	-68	-32
-126	-18	15
-103	71	26
-8	154	33
154	191	-4
339	177	-28
476	133	-30
506	88	-45
404	61	-59
192	54	-65
-58	51	-43
-270	32	-25
-390	-17	-7
-410	-94	-22
-357	-185	-34
-278	-259	-22
-200	-286	-28
-127	-249	-43
-44	-150	-43
57	-15	-41
170	110	-34
262	183	-17
297	185	-17
261	130	-9
172	60	-5
79	18	10
22	19	12
23	43	-12
58	51	-42
86	12	-49
61	-77	-34
-27	-178	-28
-151	-240	-25
-255	-236	-28
-287	-167	-34
-231	-77	-26
-100	-2	-12
49	34	-16
167	48	-19
216	72	-18
199	129	-22
131	209	-24
49	265	-17
-19	255	-16
-63	154	-23
-84	-14	-24
-94	-195	-31
-101	-326	-32
-113	-383	-30
-124	-355	-29
-120	-271	-20
-83	-164	-11
1	-51	-26
120	64	-30
245	183	-31
329	300	-24
331	388	-9
231	420	-15
52	372	-19
-152	254	-25
-321	89	-34
-418	-80	-39
-428	-205	-27
-375	-263	-19
-285	-249	-27
-182	-181	-21
-66	-90	-22
62	-8	-25
194	44	-20
300	66	-15
344	70	1
311	78	-4
212	100	-9
95	134	-10
15	152	-16
1	123	-12
44	37	-20
102	-90	-30
127	-210	-24
93	-273	-10
14	-250	5
-71	-162	1
-130	-58	-40
-151	-3	-52
-149	-29	-57
-152	-111	-79
-173	-191	-67
-194	-196	-59
-183	-99	-11
-105	72	18
42	247	12
226	345	2
387	324	-14
462	193	-15
417	16	-26
261	-143	-39
40	-237	-53
-180	-254	-42
-332	-215	-26
-383	-140	-16
-333	-43	-11
-226	69	-27
-121	190	-26
-68	290	-13
-88	336	-21
-144	301	-5
-183	194	1
-141	48	-13
0	-74	-9
205	-131	-18
393	-119	-14
470	-75	-22
396	-56	-30
184	-94	-30
-78	-183	-35
-289	-271	-20
-370	-305	-16
-310	-249	-10
-154	-119	-3
18	32	-19
143	154	-44
206	210	-41
216	209	-20
207	178	-24
189	145	-22
153	117	-18
85	79	-28
-19	21	-30
-135	-57	-21
-223	-134	-20
-249	-179	-16
-214	-169	-28
-145	-111	-38
-88	-29	-34
-63	50	-43
-66	108	-39
-63	143	-21
-23	158	2
61	159	-2
161	143	-27
224	105	-33
214	51	-35
132	-4	-39
16	-39	-26
-88	-49	-11
-141	-44	-17
-143	-54	-15
-118	-105	-9
-101	-192	-12
-107	-286	-5
-121	-333	-10
-117	-296	-25
-63	-171	-38
35	4	-44
152	162	-40
245	256	-24
277	267	-13
242	222	-19
159	158	-23
60	110	-16
-23	82	-21
-86	45	-20
-144	-18	-5
-214	-121	-12
-304	-237	-13
-383	-322	-10
-406	-333	-11
-325	-253	-24
-128	-98	-37
144	82	-52
407	235	-67
558	321	-46
537	328	-9
363	275	-2
124	193	-15
-56	106	-9
-86	35	-25
40	-23	-49
229	-72	-52
346	-119	-47
288	-159	-23
51	-186	-4
-269	-196	-14
-516	-186	-35
-569	-166	-24
-407	-131	-8
-118	-87	-15
142	-19	-12
253	71	-6
179	171	-29
-7	261	-31
-184	296	-26
-245	256	-13
-168	149	-5
-8	12	6
135	-104	-7
184	-159	-44
125	-144	-43
1	-92	-30
-114	-42	-15
-165	-32	-23
-135	-69	-32
-56	-130	-27
28	-181	-21
78	-188	-25
84	-141	-33
54	-45	-14
21	72	-16
10	185	-17
32	257	-2
84	261	5
138	188	-4
160	43	-20
119	-124	-30
10	-254	-25
-133	-281	-20
-256	-189	-32
-297	-11	-30
-231	183	-37
-77	301	-38
99	305	-25
228	203	-27
262	60	-23
210	-47	-28
120	-80	-28
41	-42	-27
4	10	-26
-13	21	-21
-43	-34	-17
-120	-131	-22
-231	-219	-44
-333	-246	-37
-377	-189	-23
-333	-75	-31
-223	50	-24
-90	138	-26
20	171	-26
95	156	-16
155	120	-9
238	85	8
351	58	8
469	31	-3
525	-12	-7
462	-76	-17
278	-149	-14
18	-211	-23
-227	-242	-35
-380	-233	-39
-409	-187	-40
-340	-126	-42
-239	-66	-51
-167	-23	-42
-147	7	-30
-160	27	-25
-160	49	-27
-104	83	-26
20	126	-23
192	178	-3
363	221	11
490	241	-9
523	231	-25
446	181	-40
265	106	-15
16	17	26
-245	-67	4
-448	-130	-31
-535	-161	-21
-486	-159	-28
-317	-133	-37
-92	-94	-31
115	-58	-39
245	-34	-35
280	-24	-34
238	-19	-40
156	-3	-37
77	32	-31
18	91	-24
-19	155	-20
-51	194	-21
-94	177	-20
-151	94	-13
-211	-37	-4
-256	-171	-10
-271	-250	-16
-241	-245	-23
-173	-152	-35
-75	-17	-40
30	106	-28
117	174	-25
166	168	-28
172	103	-16
149	14	-5
117	-64	-15
97	-117	-22
96	-140	-3
105	-135	11
109	-110	1
97	-69	-17
65	-23	-21
29	12	-26
2	19	-25
-4	-4	-25
8	-39	-36
30	-57	-32
55	-28	-28
79	48	-20
99	145	-14
114	218	-25
113	221	-28
78	149	-24
1	30	-36
-112	-82	-49
-237	-148	-43
-333	-154	-37
-371	-122	-35
-335	-89	-34
-241	-71	-30
-115	-68	-26
7	-54	-23
105	-11	-13
172	58	-14
215	126	-9
237	161	-7
238	145	-13
212	96	-34
153	56	-46
59	51	-36
-58	92	-60
-185	135	-47
-297	129	-13
-369	36	5
-383	-136	8
-325	-325	1
-197	-447	7
-20	-433	-7
172	-278	-25
342	-36	-23
439	197	-36
439	330	-45
346	329	-25
178	221	-25
-16	78	-21
-182	-26	-20
-280	-51	-19
-291	-23	-2
-232	5	-10
-139	-18	-9
-58	-109	-24
-25	-227	-36
-52	-305	-39
-120	-281	-37
-193	-143	-38
-224	62	-46
-182	262	-23
-63	382	-1
117	393	-24
320	310	-28
496	187	-11
611	72	-1
628	-16	14
551	-89	10
381	-174	-8
156	-278	-25
-81	-384	-11
-280	-443	-9
-410	-412	-28
-459	-283	-55
-450	-94	-58
-402	94	-23
-336	225	-43
-250	272	-51
-119	251	-32
77	200	-25
324	158	-19
561	138	-28
692	126	-13
636	102	29
373	43	16
-31	-35	-14
-443	-114	-25
-713	-163	-32
-756	-173	-21
-581	-145	-38
-296	-95	-35
-33	-35	-35
107	30	-45
115	100	-39
46	165	-42
-16	214	-44
-20	229	-42
20	197	-37
54	126	-31
36	38	-25
-32	-38	-17
-101	-89	1
-102	-111	7
-4	-125	2
160	-148	7
302	-186	16
346	-227	9
259	-244	-19
89	-208	-41
-65	-111	-49
-123	30	-42
-58	178	-36
79	283	-26
195	308	-21
221	243	-30
140	106	-34
6	-47	-19
-116	-168	-19
-175	-215	-47
-176	-190	-44
-152	-120	-28
-144	-49	-13
-165	-12	-35
-190	-12	-40
-187	-29	-7
-136	-29	-4
-60	9	-6
4	80	-25
22	150	-25
-1	183	-13
-32	165	-20
-19	100	-25
60	27	-21
187	-23	-13
301	-32	-12
339	-17	-6
266	-9	-9
106	-37	-6
-83	-113	-11
-229	-211	-23
-280	-292	-35
-237	-316	-48
-130	-254	-43
0	-113	-34
116	70	-24
209	236	-17
273	330	1
311	319	-6
302	207	-27
242	40	-14
107	-113	-19
-83	-190	-26
-295	-164	-16
-474	-56	-23
-580	68	-35
-581	144	-41
-485	132	-44
